Channel 1 (V)
4.917434417
4.692067833
4.748036833
5.126019917
5.320565083
5.4967905
5.634405
5.34345275
4.938783417
4.745248
4.718898333
5.093756
5.45741025
5.6635435
5.625173
5.53155475
5.259306917
4.9717205
4.7518835
4.795543167
4.849925417
5.02754525
5.371821917
5.519630083
5.549586
5.5539135
5.385525667
5.064280917
4.815978583
4.758615167
4.711782
5.013649167
5.319363
5.582282667
5.585840833
5.526121333
5.25459475
4.983741333
4.802996083
4.648840917
4.714426583
4.96984525
5.287099083
5.472171833
5.33306675
5.21420475
5.176603583
4.945418917
4.784724417
4.98023125
5.179344333
5.411442583
5.5204475
5.36624425
5.150927083
4.884353083
4.880891083
5.000618583
5.246468667
5.456063917
5.547758833
5.336913417
5.159053167
4.948592417
4.87810225
5.1009685
5.23151475
5.299793083
5.471306333
5.325229167
5.088514917
4.972489833
4.877621417
4.84377075
5.091688417
5.388843417
5.393267083
5.491405167
5.1944425
5.037690833
4.908635167
4.802034417
4.776646417
4.848050167
5.298927583
5.520207083
5.650561
5.571127333
5.249017083
4.995906417
4.821027333
4.7316885
4.654466667
4.749912083
5.192471083
5.729658083
5.71504075
5.57454125
5.24161225
4.99494475
4.873870917
4.933253833
5.112316167
5.485779417
5.655417417
5.690470167
5.495155667
5.222907833
4.96090175
5.065290667
5.22747575
5.531650917
5.820535583
5.827026833
5.6358475
5.3571565
5.121403917
5.198577667
5.35614675
5.689604667
6.080474083
5.84140375
5.56357825
5.663832
5.412885083
5.49058775
5.61175775
5.873090667
6.051239417
6.146300167
6.037151
5.775577667
5.515543
5.381871333
5.297388917
5.36826375
5.564636083
5.747112333
5.978393167
6.150771917
6.119469667
5.87458125
5.469911917
5.221465333
5.136454
5.117941917
5.430916333
5.747256583
5.88265925
5.98219175
5.910595667
5.530352667
5.374129917
5.209540667
5.197423667
5.164534667
5.264548
5.806254833
5.765720583
5.629212
5.405913
5.132895833
5.065386833
5.1373195
5.260268583
5.688017917
5.730283167
5.70263525
5.483856083
4.999128
4.908539
4.958209083
5.183575667
5.465007417
5.620460833
5.611950083
5.668111417
5.551124667
4.912626083
4.869687667
4.868485583
5.299648833
5.602285333
5.716579417
5.5943035
5.472652667
4.866802667
4.788907667
4.848579083
5.061203583
5.485154333
5.564395667
5.549682167
5.413894833
4.91906925
4.9145975
4.9953775
5.088899583
5.354319583
5.450438167
5.49116475
5.288878167
5.034517333
4.831990333
4.70875275
4.923541
5.061636333
5.199106583
5.534055083
5.713405917
5.512417583
5.030863
4.840549167
4.86800475
4.966623667
5.239111917
5.476403167
5.50039675
5.393844083
4.949409833
4.78347425
4.619702417
4.599170833
5.217185917
5.349126583
5.3150355
5.342923833
5.403989667
5.298831417
5.267433
5.152273417
5.244160667
5.697971167
6.114084333
6.321708167
6.213953417
6.259969167
6.13971275
5.828469333
5.516504667
5.248199667
5.083898917
5.29585025
5.53357425
5.663783917
5.7414385
5.70580875
5.4125485
5.110489
4.853675917
4.727697583
4.738275917
4.896662417
5.033267167
5.27998275
5.37345675
5.422165167
5.1494365
4.768087583
4.563396833
4.583928417
4.621577667
4.856080083
5.042739583
5.163813417
5.2157915
5.242670083
5.106546167
4.80828525
4.592391083
4.588207833
4.601623083
4.754576167
4.939745083
5.069473917
5.206848
5.031055333
4.750777583
4.556953667
4.3416365
4.563252583
4.791167583
5.011870083
5.138425417
4.875986583
4.753951083
4.575129167
4.420925917
4.45198775
4.689086667
4.923877583
5.1488595
5.271808583
5.1390505
4.943399417
4.51718875
4.41361725
4.489685083
4.780637333
5.166217583
5.18391225
4.990857667
4.782656833
4.533585167
4.421070167
4.440399667
4.691538917
4.862619417
5.109960083
5.24824775
5.0669255
4.884112667
4.639657
4.462277583
4.29821725
4.481799417
4.871274417
5.164967417
5.198962333
5.22430225
5.07312825
4.7363045
4.508101
4.340771
4.33226025
4.47420225
4.726687833
5.025910417
5.107604
4.91041425
4.674757833
4.386257833
4.36745725
4.499926833
4.698511
4.887815083
5.195356083
5.208915583
5.065483
4.942005
4.684422583
4.419483417
4.383997917
4.528055583
4.716926917
4.984606833
5.114528
5.236803917
5.132318833
4.738083583
4.608979833
4.51834275
4.423089667
4.599074667
5.06418475
5.308207667
5.306428583
5.179680917
5.019371083
4.854926083
4.620712167
4.531277167
4.68278775
4.893777417
5.009465917
5.1742475
5.21564725
5.01283175
4.81347825
4.50160975
4.362600833
4.38765225
4.61181675
4.798860917
5.033988417
5.277049667
5.024419833
4.998599083
4.915991917
4.707069833
4.54459625
4.43813975
4.625616667
4.818767417
4.949025167
5.12650075
5.142416333
4.986962917
4.787369
4.444582917
4.474586917
4.646532917
4.88791125
5.180354083
5.127270083
4.991530833
4.8378565
4.334520167
4.3041315
4.4622295
4.82372
5.347876417
5.381775167
5.108854167
4.812805083
4.381834167
4.38361325
4.541518917
4.759288333
5.047211333
5.279021083
5.329075833
5.181556167
4.9076735
4.502571417
4.490983333
4.671488167
4.905894417
5.150927083
5.387929833
5.356868
5.03100725
4.796120167
4.633983167
4.491993083
4.607248833
4.879304333
5.138521583
5.333980333
5.446206833
5.407307417
5.336721083
5.1552065
4.97417275
4.861994333
4.848146333
5.113758667
5.398748583
5.546220167
5.638924833
5.61897025
5.622528417
5.326335083
5.108517583
4.944697667
4.873534333
5.043172333
5.6139215
5.851982083
5.856501917
5.632674
4.929695667
4.842184
4.901134167
5.04225875
5.482028917
5.700134917
5.611661583
5.451736417
5.140973833
4.898201083
4.831557583
4.946044
5.4079325
5.38268875
5.351578833
5.487173833
4.903586417
4.686490167
4.60114225
4.845549833
5.5602605
5.455583083
5.34316425
5.222330833
4.77337675
4.531421417
4.548010167
4.764481333
5.203193667
5.315372083
5.383938917
5.239352333
4.661775333
4.526949667
4.531950333
4.695626
5.079908
5.300658583
5.36105125
5.161842
4.893585083
4.6191735
4.3837575
4.467374417
4.624847333
5.08005225
5.234928667
5.389805083
5.219734333
4.837183333
4.587198083
4.498099667
4.532286917
5.004224833
5.219878583
5.272385583
5.190595833
4.711974333
4.580562583
4.61268225
4.580562583
5.028651167
5.148667167
5.190740083
5.195548417
4.8343945
4.630665417
4.4616525
4.385873167
4.87377475
5.135828917
5.168669833
5.157851083
5.147753583
4.895604583
4.602103917
4.40121175
4.372409833
4.615807667
4.85992675
5.034421167
5.117220667
5.116787917
4.926233667
4.565993333
4.4201085
4.342694333
4.383084333
4.84059725
5.081975583
5.229928
5.200164417
5.119336333
5.067214
4.957103167
4.9192135
5.145205167
5.517851
5.874533167
6.018735083
6.164139083
6.085090083
5.72629225
5.322632667
5.033940333
4.712743667
4.7270725
5.062694167
5.326864
5.381679
4.966431333
4.757461167
4.591092833
4.422464583
4.449824
4.74452675
4.929070583
4.840453
4.773040167
4.571955667
4.454488083
4.33976125
4.4956955
4.696010667
4.935081
5.096015917
4.787465167
4.464297083
4.23532425
4.219360583
4.287206167
4.605854417
4.82126775
4.889305667
4.727745667
4.540413
4.332067917
4.243738833
4.553924417
4.785109083
4.949554083
5.059136
5.003840167
4.888151667
4.73183275
4.410347583
4.280955333
4.618548417
4.804679
4.98023125
4.968018083
4.947246083
4.768520333
4.610903167
4.41505975
4.21541775
4.437322333
4.772559333
4.963931
5.13457875
5.060241917
4.802996083
4.44910275
4.324855417
4.5187755
4.700338167
4.8984415
5.172612667
4.886276417
4.6537935
4.365822417
4.31062275
4.402461917
4.736833417
5.0299975
5.075292
5.056491417
4.810064333
4.505408333
4.385007667
4.367793833
4.367264917
4.526949667
4.701396
4.96234425
5.094717667
5.030959167
4.851752583
4.667978083
4.350676167
4.244989
4.256288583
4.359908167
4.632636833
4.92195425
5.126693083
5.105536417
4.715821
4.55988675
4.311295917
4.206570417
4.369524833
4.553203167
4.804438583
5.035142417
5.22185
5.147368917
4.929503333
4.603883
4.33283725
4.309853417
4.299419333
4.459825333
4.728515
5.017399667
5.125875667
5.103613083
4.97374
4.754816583
4.27715675
4.253595917
4.407799167
4.767414417
5.225119667
5.127173917
5.017832417
4.7432285
4.268982583
4.267492
4.48718475
4.803188417
5.149148
5.1725165
5.01600525
4.7651545
4.386690583
4.281003417
4.436601083
4.74885425
5.323786667
5.372447
4.94734225
4.555943917
4.367697667
4.351830167
4.470355583
4.6180195
4.817757667
5.128376
5.206030583
4.984510667
4.5966705
4.332164083
4.394047333
4.641628417
4.770972583
5.233341917
5.325806167
5.096737167
4.778521667
4.493483667
4.381064833
4.40409675
4.56219475
4.742266833
5.005523083
5.215983833
5.1390505
5.030622583
4.789051917
4.586092167
4.469826667
4.50968775
4.54199975
5.09101525
5.174199417
5.1390505
4.98975175
4.583111
4.386305917
4.416886917
4.689327083
4.998551
5.093371333
5.115008833
4.957535917
4.883247167
4.795927833
4.51718875
4.560415667
4.659323083
4.896614333
5.093707917
5.273010667
5.27969425
5.275511
4.775059667
4.638551083
4.703655917
4.854108667
5.335759417
5.495107583
5.53905575
5.4939055
5.276905417
5.070772167
5.005667333
4.996771917
5.112845083
5.296667667
5.457506417
5.71013625
5.813900083
5.598631
5.340038833
5.136550167
4.976625
4.88444925
5.0288435
5.338067417
5.668496083
5.765768667
5.66253375
5.567136417
5.429377667
5.168669833
4.955949167
4.947967333
5.07197425
5.240410167
5.420145667
5.588870083
5.740765333
5.436494
5.1990585
4.950131083
4.87565
5.294888583
5.453323167
5.598102083
5.54540275
5.216176167
4.963594417
4.746882833
4.723850917
5.0288435
5.339365667
5.469575333
5.393699833
5.112797
4.752700917
4.64932175
4.686394
4.820065667
4.991578917
5.252046333
5.427213917
5.468229
5.035286667
4.6589865
4.5447405
4.588881
5.220888333
5.386391167
5.281521417
5.343693167
5.298206333
4.9763365
4.716446083
4.699857333
4.674084667
4.7397665
5.052115833
5.283348583
5.512177167
5.597284667
5.393555583
5.0553855
4.774001833
4.681441417
4.5193525
4.550750917
4.929551417
5.220936417
5.371052583
5.277193917
5.25949925
5.199875917
4.889257583
4.661775333
4.691538917
4.875601917
5.137800333
5.297965917
5.249161333
4.983741333
4.74135325
4.714667
4.850454333
4.947726917
5.169583417
5.329941333
5.341048583
4.97099925
4.677354333
4.583784167
4.771982333
4.913780083
4.9994165
5.146263
5.093371333
5.069570083
4.835452333
4.62422225
4.803428833
5.034709667
5.28055975
5.445822167
5.742496333
5.615892917
5.5198705
5.425050167
5.628442667
5.81918925
6.124470333
6.274201833
6.226743583
5.859194583
5.4846735
4.98513575
4.713272583
4.620856417
4.606287167
4.973788083
5.267817667
5.291859333
5.370090917
5.397450333
5.17496875
4.830115083
4.616528917
4.4651145
4.512524667
4.860311417
5.079234833
5.198096833
5.170593167
4.888872917
4.593448917
4.3064395
4.45112225
4.885699417
5.114912667
5.332585917
5.266279
4.923781417
4.784147417
4.464826
4.399144167
4.5787835
4.9394085
5.29267675
5.083995083
4.822517917
4.732794417
4.486800083
4.65826525
4.77799275
4.977586667
5.144628167
5.291859333
5.3352305
5.05985725
4.747652167
4.613163083
4.667353
4.6272515
4.91849225
5.228725917
5.3888915
5.340327333
5.133520917
5.030286
4.83598125
4.66172725
4.541759333
4.649514083
4.87579425
5.05466425
5.269404417
5.391824583
5.33681725
4.966912167
4.54026875
4.552914667
4.500263417
4.567772417
4.78433975
4.98051975
5.255796833
5.350617167
5.182614
4.93955275
4.451314583
4.488483
4.613740083
4.84348225
5.237092417
5.315083583
5.198433417
4.975374833
4.677787083
4.699424583
4.669035917
4.7576535
5.203049417
5.237909833
5.052885167
5.008937
4.53017125
4.440063083
4.5995555
4.929359083
5.202712833
5.27507825
5.328210333
4.99148275
4.710676083
4.589265667
4.428138417
4.516371333
4.705963917
5.16515975
5.27103925
5.184152667
5.012014333
4.7905425
4.670863083
4.602200083
4.620231333
4.80886225
5.25805675
5.270943083
5.187133833
5.086880083
4.767799083
4.471701917
4.486367333
4.661390667
4.876707833
5.13342475
5.353934917
5.3992775
5.3294605
5.00475375
4.641628417
4.52368
4.532912
4.502571417
5.10226675
5.23843875
5.301427917
5.2890705
5.089524667
4.873870917
4.666535583
4.583639917
4.673123
5.0340365
5.352492417
5.4696715
5.245603167
4.667978083
4.655043667
4.53190225
4.59421825
4.848867583
5.036536833
5.227235333
5.337153833
5.301379833
5.046778583
4.703319333
4.53421025
4.436168333
4.5562805
4.837616083
5.136934833
5.260268583
5.361003167
5.333691833
5.0571165
4.823046833
4.605950583
4.487521333
4.605662083
4.849636917
5.040335417
5.245122333
5.318016667
5.253536917
5.020573167
4.74871
4.558059583
4.575802333
4.597439833
4.79097525
4.993742667
5.300899
5.353742583
5.25834525
5.072166583
4.79097525
4.6203275
4.566474167
4.608402833
4.76558725
5.0859665
5.307246
5.341192833
5.02177525
4.784484
4.668891667
4.671440083
5.064857917
5.317006917
5.566511333
5.667967167
5.345135667
5.1453975
4.866898833
4.783281917
5.228245083
5.5919955
5.685998417
5.798176833
5.584302167
5.281040583
4.97330725
4.994463917
5.332730167
5.523140167
5.813611583
5.933291
5.485298583
5.2105985
5.04052775
4.885987917
4.968498917
5.35470425
5.577810917
5.649935917
5.693787917
5.466690333
5.249449833
5.043028083
4.97301875
5.073897583
5.390334
5.630991083
5.6796995
5.668688417
5.386198833
4.991867417
4.773472917
4.78260875
4.913491583
5.214108583
5.463372583
5.555019417
5.573868083
5.410577083
5.167419667
4.875073
4.65307225
4.63778175
4.791167583
5.018361333
5.280223167
5.338981
5.344654833
5.491405167
5.219349667
4.9538335
4.823816167
4.63749325
4.678316
4.9163285
5.153138917
5.367446333
5.445245167
5.312198583
5.048942333
4.692741
4.531229083
4.624606917
4.71365725
4.98657825
5.033699917
5.163813417
5.46173775
5.439571333
5.172997333
4.915222583
4.639031917
4.48314575
4.598593833
4.88069875
5.170545083
5.314266167
5.30854425
5.226466
5.076542167
4.811603
4.584890083
4.44967975
4.773617167
5.154437167
5.346433917
5.162611333
5.003744
4.816603667
4.592102583
4.4429
4.69721275
5.011629667
5.263586333
5.304409083
5.132463083
5.009610167
4.792081167
4.490214
4.53911475
4.67499825
4.809920083
5.084427833
5.447697417
5.346145417
5.11178725
4.847713583
4.606287167
4.631338583
5.023602417
5.285368083
5.361435917
5.3052265
5.2429105
5.171025917
5.17266075
5.278973
5.4835195
6.005367917
6.358636167
6.27675025
6.222752667
5.993395167
5.5469895
4.918828833
4.94099525
5.054760417
5.183094833
5.550691917
5.43000275
5.256998917
5.09361175
4.56421425
4.643311333
4.943736
5.178623083
5.266279
5.216657
5.186556833
5.01571675
4.768087583
4.6445615
4.615807667
4.598930417
4.779675667
5.027641417
5.266375167
5.329220083
5.224061833
5.178190333
5.007975333
4.776934917
4.647206083
4.630376917
4.76327925
4.996002583
5.242958583
5.268106167
5.153956333
4.949842583
4.435639417
4.4466505
4.632636833
4.824345083
5.293301833
5.330951083
5.28921475
5.162226667
4.550462417
4.521564333
4.81895975
5.091832667
5.39163225
5.59329375
5.555933
5.361003167
5.1586685
4.73760275
4.608450917
4.74683475
4.9901845
5.48424075
5.5833405
5.516745083
5.279357667
4.62566475
4.555318833
4.702934667
5.012879833
5.313977667
5.360714667
5.527563833
5.248007333
4.69692425
4.58715
4.653024167
4.875601917
5.37778425
5.386102667
5.327825667
5.088226417
4.888584417
4.74164175
4.643119
4.675911833
4.863052167
5.172131833
5.500300583
5.54453725
5.310708
4.96609475
4.708512333
4.57084975
4.63056925
4.708993167
5.129049167
5.394613417
5.416058583
5.32989325
5.008263833
4.802419083
4.709714417
4.695385583
5.2105985
5.272385583
5.425482917
5.46318025
4.863581083
4.6434075
4.735775583
4.788282583
5.1355885
5.457073667
5.581080583
5.475922333
5.272049
5.045288
4.805640667
4.592727667
4.704617583
4.94965025
5.21680125
5.524246083
5.493088083
5.482413583
5.34489525
5.1407815
4.861705833
4.689279
4.792610083
4.950563833
5.184729667
5.44010025
5.608391917
5.605170333
5.453034667
5.161168833
4.824345083
4.668314667
4.831846083
5.02610275
5.250892333
5.5094845
5.701721667
5.601996833
5.376293667
4.969124
4.729861333
4.838770083
4.785253333
5.047932583
5.374706917
5.5931495
5.696144
5.410865583
5.129001083
4.824248917
4.72808225
5.002397667
5.371052583
5.64608925
5.65878325
5.483567583
5.251661667
4.926954917
4.812131917
5.165688667
5.51799525
5.686719667
5.647483667
5.426781167
5.077936583
4.797995417
4.859253583
5.30998675
5.370619833
5.512994583
5.634356917
5.54742225
5.280800167
4.95311225
4.909500667
5.175113
5.381053917
5.47962475
5.683401917
5.470729333
5.209252167
5.012639417
5.01456275
5.3548485
5.675420083
5.795724583
5.84371175
5.825440083
5.488664417
5.374947333
5.380573083
5.28517575
5.445726
5.75139175
6.097159
6.170918833
6.1112955
5.90573925
5.623393917
5.40403775
5.580840167
5.73581275
5.9324255
6.1447615
6.13076925
5.86217575
5.560645167
5.327681417
5.34749175
5.403268417
5.666043833
5.8049085
5.945456083
6.05979825
5.740236417
5.488616333
5.371293
5.299360333
5.457025583
5.6075745
5.739226667
5.925309167
6.006233417
5.98017225
5.678593583
5.42856025
5.207425
5.13602125
5.1667465
5.346674333
5.657821583
5.972767417
6.02142775
5.834383583
5.686383083
5.395575083
5.062405667
5.145060917
5.14669575
5.490058833
5.780770667
5.860060083
5.785579
5.4840965
5.190884333
5.01889025
5.050144417
5.126404583
5.210069583
5.456063917
5.698259667
5.839624667
5.650368667
5.517033583
5.300273917
5.073464833
4.95109275
5.06476175
5.381005833
5.516600833
5.66541875
5.6110365
5.489097167
5.277819
4.954939417
4.979461917
5.141454667
5.32296925
5.730667833
5.657292667
5.560645167
5.224927333
4.810785583
4.846751917
5.134626833
5.3900455
5.5487205
5.59156275
5.477845667
5.15448525
4.944938083
5.025621917
5.16717925
5.437840333
5.576464583
5.5475665
5.633491417
5.422165167
5.179248167
4.856705167
4.839202833
5.0542315
5.39278625
5.768894083
5.653446
5.49751175
5.205165083
4.629174833
4.677739
5.044326333
5.30883275
5.515783417
5.59113
5.516648917
5.469046417
5.525880917
5.523140167
5.56242425
5.754180583
6.046142583
6.370993583
6.509762083
6.425135417
6.404171083
6.200057333
5.363311167
5.257720167
5.108661833
5.169006417
5.705953
5.815534917
5.745862167
5.458612333
5.220503667
4.9094045
4.767174
4.844251583
4.983452833
5.244353
5.497559833
5.560356667
5.5417965
5.143137583
4.92483925
4.944793833
4.960084333
4.890988583
5.003359333
5.544441083
5.6110365
5.446351083
5.21564725
5.054279583
4.8909405
4.826508833
4.819296333
4.968354667
5.404182
5.515014083
5.53328575
5.489529917
4.8078525
4.6936065
4.704858
5.012062417
5.475056833
5.656331
5.650368667
5.4344745
5.143426083
4.934504
4.797755
5.0346135
5.254979417
5.449139917
5.559923917
5.731437167
5.8135635
5.57742625
5.28113675
4.964604167
4.801168917
4.836317833
5.335567083
5.578676417
5.686960083
5.646041167
5.242525833
5.015043583
4.871707167
4.880025583
5.36653275
5.537517083
5.641136667
5.5723775
5.2307935
4.889690333
4.797418417
5.004705667
5.280607833
5.515158333
5.613007917
5.536988167
5.191509417
4.882958667
4.850213917
4.940322083
5.176218917
5.37864975
5.56184725
5.712059583
5.678834
5.197952583
4.862571333
4.874111333
5.085197167
5.176844
5.287724167
5.588196917
5.62704825
5.569204
5.5048685
5.183575667
5.049663583
4.989270917
4.807804417
4.9088275
5.34402975
5.583725167
5.599015667
5.5527595
5.389372333
5.22430225
4.980279333
4.851079417
4.916713167
5.156697083
5.40259525
5.585744667
5.647772167
5.62589425
5.44125425
5.21708975
4.991627
4.928253167
5.1067385
5.403556917
5.63599175
5.733985583
5.439571333
5.219638167
4.918396083
4.91791525
5.117605333
5.3259985
5.690614417
5.784232667
5.480538333
5.158331917
4.913106917
4.862186667
4.896422
5.07889825
5.294215417
5.622865
5.757786833
5.585408083
5.30263
4.92224275
4.870553167
5.118374667
5.369658167
5.623249667
5.617768167
5.642531083
5.530593083
5.229831833
4.971912833
4.966864083
4.8886325
4.9659505
5.291474667
5.570935
5.676526
5.605218417
5.543431333
5.254642833
5.000041583
4.913251167
4.863052167
5.039758417
5.339606083
5.613007917
5.765576333
5.7391305
5.516071917
5.223677167
5.066973583
4.934455917
5.15910125
5.46231475
5.709511167
5.70263525
5.489337583
5.325613833
5.127991333
5.1378965
5.29931225
5.4177415
5.714079083
6.106968
5.925213
5.454429083
5.150975167
5.204588083
5.302293417
5.588341167
5.87342725
6.074319417
6.21933875
6.024505083
5.636376417
5.455294583
5.343789333
5.410625167
5.49751175
5.671958083
6.0057045
6.193133333
5.97772
5.759950583
5.534199333
5.400383417
5.368504167
5.483471417
5.74879525
6.035371917
6.092446833
6.074656
5.954399583
5.655850167
5.396344417
5.283925583
5.285656583
5.373504833
5.604016333
5.892372083
5.98132625
6.058548083
5.850106833
5.418510833
5.232620667
5.202424333
5.200501
5.3115735
5.59877525
5.855011333
5.961179333
5.969978583
5.704318167
5.423607667
5.042210667
5.015091667
5.183383333
5.5302565
5.917471583
5.8493375
5.645560333
5.433224333
4.987011
5.00359975
5.260989833
5.5123695
5.83823025
5.815775333
5.62589425
5.365426833
4.96984525
4.969797167
5.255412167
5.580118917
5.638107417
5.713694417
5.641280917
5.339173333
4.834634917
4.9030575
5.198193
5.445341333
5.76235475
5.736630167
5.423703833
5.318257083
5.091928833
5.037450417
5.14640725
5.426492667
5.700423417
5.877081583
5.7524015
5.56473225
5.333788
5.059136
4.966912167
4.994704333
5.142416333
5.373360583
5.729802333
5.801061833
5.655561667
5.563434
5.061347833
4.90983725
4.836894833
5.021390583
5.640800083
5.53732475
5.507993917
5.430964417
5.070291333
4.947678833
4.959074583
5.178382667
5.656138667
5.805774
5.885015333
5.892372083
5.895689833
5.8083705
5.649935917
5.798224917
6.1072565
6.378686917
6.552748583
6.57448225
6.516734167
6.260690417
5.778078
5.45885275
5.304601417
5.225504333
5.443898833
5.788704417
5.97151725
5.996135917
5.824286083
5.579397667
5.446639583
5.237525167
5.011437333
4.94791925
5.074041833
5.345087583
5.51482175
5.6462335
5.762595167
5.574348917
4.99407925
4.850310083
4.937148583
5.039037167
5.284935333
5.521409167
5.781011083
5.777885667
5.50558975
5.34922275
5.175305333
5.000955167
4.877717583
4.935658
5.365907667
5.680613083
5.817410167
5.754949917
5.282098417
5.0230735
4.88675725
4.88877675
5.318401333
5.651618833
5.873186833
5.804812333
5.3109965
5.142224
5.09678525
5.102314833
5.254210083
5.49837725
5.798176833
5.889679417
5.942571083
5.349703583
5.086014583
4.994127333
5.045047583
5.48106725
5.7697115
5.96718975
5.991808417
5.4823655
5.177036333
5.07341675
5.066637
5.274357
5.511984833
5.748891417
5.830104167
5.79264725
5.423848083
5.109335
5.007831083
5.040672
5.230553083
5.519389667
5.710184333
5.821833833
5.824718833
5.577330083
5.283012
5.142464417
5.087409
5.039566083
5.151263667
5.429233417
5.714608
5.829094417
5.614017667
5.43086825
5.21362775
5.077071083
5.258681833
5.39278625
5.721868583
5.902758083
5.677776167
5.3952385
5.1240485
4.970374167
5.18881675
5.589735583
5.832123667
5.890641083
5.889631333
5.701288917
5.492847667
5.12621225
5.063752
5.1332805
5.355665917
5.791156667
5.899873083
5.679074417
5.278780667
5.012735583
5.056251
5.2700295
5.52318825
5.760864167
5.850251083
5.796061167
5.61521975
5.398508167
5.118038083
4.953737333
4.961671083
5.210935083
5.555884917
5.634356917
5.753507417
5.801927333
5.654071083
5.418222333
5.188480167
4.980664
5.024516
5.209540667
5.368456083
5.529054417
5.688114083
5.745669833
5.659216
5.4742875
5.20843475
4.9924925
5.118759333
5.452890417
5.706049167
5.77504875
5.652965167
5.394853833
5.2169455
5.100776167
5.062838417
5.20208775
5.585167667
5.773798583
5.656282917
5.644550583
5.4212035
5.14006025
5.116739833
5.307246
5.656667583
5.835201
5.819718167
5.703068
5.451832583
5.265894333
5.250363417
5.518331833
5.8908815
6.114805583
6.256651417
6.281606667
6.071867167
5.795147583
5.488904833
5.485587083
5.59185125
5.729802333
5.9053065
6.132115583
6.318823167
6.237706583
6.054364833
5.905979667
5.764999333
5.624596
5.65416725
5.782742083
5.991231417
6.266604667
6.34079725
6.244967167
6.005223667
5.736293583
5.506359083
5.456929417
5.521697667
5.73350475
5.989596583
6.16827425
6.143896
5.999309417
5.549682167
5.127895167
5.319122583
5.5919955
5.883188167
6.089658
5.961323583
5.741678917
5.5417965
5.466257583
5.343789333
5.291138083
5.441783167
5.76610525
5.958871333
5.954832333
5.79784025
5.47443175
5.117509167
5.082216
5.308640417
5.71936825
5.8787645
5.907566417
5.744660083
5.437648
5.02033275
5.02841075
5.218003333
5.3911995
5.64983975
6.0057045
5.923962833
5.795147583
5.519822417
5.07918675
5.034805833
5.27103925
5.597236583
5.793849333
5.7235515
5.491501333
5.308592333
5.154437167
4.987011
4.936042667
5.14107
5.474672167
5.771057833
5.826449833
5.738745833
5.57107925
5.097169917
4.916232333
4.917386333
5.156023917
5.646041167
5.800821417
5.696047833
5.534247417
5.067887167
4.965469667
4.898633833
5.056202917
5.6312315
5.774039
5.768605583
5.659889167
5.16544825
5.029372417
4.937581333
5.130155083
5.549489833
5.632145083
5.674025667
5.443418
5.177324833
4.880891083
4.734333083
4.882574
5.274164667
5.636232167
6.0357085
6.320265667
6.60102425
6.629489583
6.377917583
6.028399833
5.845587
5.746343
5.875494833
6.088311667
6.236793
6.135721833
6.051624083
5.861166
5.213579667
5.06533875
5.130107
5.2100215
5.49606925
5.689797
5.689604667
5.649935917
5.6646975
5.389805083
5.056251
5.012927917
4.9590265
5.078513583
5.265942417
5.440629167
5.597236583
5.635751333
5.09534275
4.959122667
4.880843
4.95657425
5.01225475
5.270943083
5.52318825
5.619403
5.578243667
5.194346333
4.98975175
4.836942917
4.76558725
5.1707855
5.482557833
5.584446417
5.66772675
5.330999167
5.033171
4.878486917
4.881371917
5.040623917
5.248632417
5.5239095
5.707684
5.710040083
5.3727355
5.166265667
5.102747583
5.027016333
5.49808875
5.57050225
5.742640583
5.758556167
5.241660333
5.016630333
4.97388425
5.0109565
5.488375917
5.67090025
5.69340325
5.660754667
5.5850715
5.368456083
5.0946215
4.931234333
4.8061215
4.993021417
5.17468025
5.374562667
5.563914833
5.323979
5.146647667
5.211992917
5.07428225
5.0421145
5.29440775
5.612094333
5.767307333
5.70609725
5.425915667
5.196702417
5.081687083
4.945418917
5.206848
5.333451417
5.637674667
5.727109667
5.762691333
5.613633
5.204491917
4.95542025
4.869062583
4.858820833
5.02408325
5.39797925
5.62185525
5.749708833
5.798176833
5.547614583
5.274693583
5.012014333
4.909596833
4.936042667
5.126308417
5.33883675
5.515302583
5.716290917
5.659167917
5.40028725
5.123134917
4.975711417
4.939023833
4.97676925
5.09072675
5.28084825
5.538959583
5.8349125
5.768942167
5.563770583
5.404133917
5.094573417
4.871851417
4.949409833
5.099429833
5.4639015
5.492463
5.54367175
5.68532525
5.565790083
5.441638917
5.116162833
4.93176325
5.061972917
5.40230675
5.711386417
5.6560425
5.4794805
5.260509
5.024564083
4.981721833
5.046538167
5.267481083
5.612815583
5.82957525
5.6341165
5.530737333
5.10688275
5.061684417
5.222090417
5.350857583
5.6075745
5.6641205
5.53343
5.34056775
5.016389917
4.7166865
4.90233625
5.16285175
5.381919417
5.57223325
5.642290667
5.349847833
5.065531083
4.96522925
5.048076833
5.09591975
5.43404175
5.66022575
5.693739833
5.508282417
5.296234917
5.122125167
5.0692335
4.915463
5.005426917
5.281329083
5.518043333
5.754180583
5.824045667
5.6196915
5.347107083
5.151648333
5.075532417
5.01023525
5.196413917
5.540450167
5.865685833
5.817506333
5.733600917
5.492703417
5.060049583
5.101785917
5.273972333
5.627000167
5.931608083
6.059028917
6.068549417
6.013734417
5.831739
5.46981575
5.334316917
5.34604925
5.661283583
5.928867333
6.110478083
6.19741275
6.08547475
5.834527833
5.771490583
5.593101417
5.53184325
5.588870083
5.958582833
6.1412995
6.1395685
5.912999833
5.710520917
5.517177833
5.391488
5.368888833
5.580263167
5.857319333
6.333680917
6.232946333
5.922808833
5.469863833
5.250074917
5.303110833
5.39769075
5.518428
5.994837667
5.95651525
5.7298985
5.424473167
5.1234715
4.965662
5.007686833
5.111643
5.434282167
5.71907975
5.713405917
5.868282333
5.711146
5.204491917
5.113325917
5.020284667
5.05322175
5.589399
5.76408575
5.783751833
5.58146525
5.091928833
5.156456667
5.001436
5.015332083
5.643733167
5.690854833
5.731437167
5.600458167
5.033748
4.89310425
4.897672167
5.043508917
5.245122333
5.4662095
5.753795917
5.696144
5.497752167
4.988261167
4.8776695
4.808958417
4.911327833
5.426011833
5.608632333
5.591658917
5.43981175
5.173910917
4.949890667
4.857570667
4.70586775
4.77251125
5.0865435
5.4217805
5.591033833
5.745189
5.6029585
5.413894833
4.9976855
4.779050583
4.874736417
5.021679083
5.233293833
5.444956667
5.594640083
5.5856485
5.44529325
5.045288
4.71654225
4.76010575
4.893344667
5.256373833
5.4385135
5.73292775
5.599688833
5.046201583
4.822469833
4.837087167
4.814247583
5.172756917
5.600458167
5.997145667
6.281847083
6.061865833
5.88179375
5.725571
5.60627625
5.867032167
6.19121
6.274923083
6.246553917
6.106631417
5.54973025
5.177998
4.884833917
4.793619833
5.235746083
5.5712235
5.71792575
5.571512
5.257575917
4.937196667
4.682980083
4.60085375
4.782560667
5.050481
5.241948833
5.404518583
5.429618083
5.192951917
4.92281975
4.751018
4.645475083
4.756211
5.075340083
5.344366333
5.467315417
5.402547167
5.352444333
5.17929625
4.782945333
4.581283833
4.709281667
4.999128
5.2521425
5.518908833
5.595649833
5.507801583
5.364561333
5.181700417
4.8897865
4.646196333
4.832375
5.095438917
5.2856085
5.521120667
5.5608375
5.31373725
5.077936583
4.806313833
4.999128
5.337490417
5.557327417
5.62877925
5.405913
5.254402417
5.0398065
4.95368925
4.784580167
4.932773
5.2850315
5.61868175
5.687537083
5.590024083
5.465247833
5.263153583
4.94791925
4.8470885
4.9105585
5.021246333
5.254690917
5.494722917
5.755526917
5.606709
5.4004315
5.330374083
5.156264333
4.805833
4.7091855
4.831846083
5.035863667
5.320565083
5.59040875
5.482269333
5.18622025
4.9982625
4.83944325
4.719763833
4.889882667
5.177180583
5.474768333
5.558914167
5.653494083
5.505637833
5.2682985
4.9734515
4.845069
4.84059725
4.894450583
5.139579417
5.407595917
5.707587833
5.5392
5.206799917
4.9838375
4.72404325
4.905269333
5.276665
5.594928583
5.761537333
5.5810325
5.276328417
4.934696333
4.851800667
5.051538833
5.205597833
5.472845
5.6116135
5.3144585
5.105199833
4.99105
4.833529
5.013793417
5.215118333
5.470344667
5.708068667
5.465872917
5.198818083
5.041200917
4.93435975
5.058318583
5.105921083
5.29123425
5.617672
5.574012333
5.412067667
5.129866583
4.942197333
5.14107
5.38730475
5.523861417
5.654071083
5.577378167
5.5804555
5.430724
5.136550167
4.8915175
4.896373917
5.158908917
5.41846275
5.601564083
5.58896625
5.440533
5.263634417
4.9140205
4.950323417
5.3987005
5.636232167
5.863714417
5.774375583
5.563241667
5.335567083
4.902720917
5.11524925
5.3710045
5.497992583
5.80130225
5.770961667
5.542758167
5.37374525
5.18102725
5.040479667
5.257239333
5.407018917
5.537228583
5.662197167
5.881168667
5.94526375
5.717877667
5.456881333
5.258778
5.118518917
5.145445583
5.424473167
5.700567667
5.868426583
5.9260785
5.784425
5.547085667
5.374418417
5.232620667
5.290993833
5.42019375
5.603583583
5.919971917
6.201499833
6.243765083
6.025274417
5.760527583
5.493088083
5.339365667
5.351338417
5.638395917
6.09066775
6.377917583
6.36185775
6.209914417
5.967334
5.589399
5.62618275
5.772836917
5.867513
6.30963925
6.420230917
6.322285167
6.0674435
5.811736333
5.63166425
5.536988167
5.924155167
6.415470667
6.455476
6.251458417
6.047633167
5.583388583
5.705279833
5.73090825
5.84630825
6.243188083
6.262758
6.194431583
6.000126833
5.451592167
5.387208583
5.577474333
5.797455583
6.125960917
6.102255833
6.058596167
5.735428083
5.313496833
5.204443833
5.373360583
5.534487833
5.717685333
5.995414667
6.088696333
5.899007583
5.674266083
5.19747175
5.058895583
5.212618
5.51135975
5.604064417
5.810870833
5.820006667
5.755767333
5.657485
5.40778825
5.19400975
4.963305917
5.110440917
5.53732475
5.791445167
5.8401055
5.71157875
5.115489667
5.047067083
5.07659025
5.125154417
5.336913417
5.6219995
5.919683417
5.987192417
5.77620275
5.200741417
5.0138415
4.98571275
5.085437583
5.26613475
5.461112667
5.569011667
5.676910667
5.766441833
5.5764165
5.193913583
4.925320083
4.868149
4.86021525
5.049086583
5.411731083
5.795388
5.845971667
5.631327667
5.071301083
4.846607667
4.821412
5.020573167
5.258297167
5.332874417
5.617287333
5.829527167
5.747689333
5.45337125
5.18448925
4.96407525
4.881035333
4.90839475
5.17035275
5.403556917
5.493809333
5.53126625
5.609209333
5.394180667
5.060963167
4.863629167
4.999801167
5.300658583
5.690422083
6.002434833
6.310023917
6.4846145
6.47321875
6.305792583
5.902950417
5.58838925
5.574589333
5.665370667
5.778558833
5.828661667
5.817842917
5.443466083
5.21708975
4.92628175
4.903249833
5.151071333
5.452601917
5.513860083
5.504099167
5.438850083
5.19689475
4.931282417
4.646629083
4.592246833
4.870505083
5.199347
5.436734417
5.5475665
5.4552465
5.302053
5.0865435
4.6636025
4.635137167
4.952968
5.165640583
5.336865333
5.455727333
5.383073417
5.180979167
4.927243417
4.771261083
4.664708417
4.685865083
4.8840165
5.18939375
5.506888
5.53674775
5.491501333
5.3277295
4.97821175
4.596574333
4.447035167
4.623404833
4.9769135
5.306284333
5.49606925
5.403076083
5.484769667
5.426877333
5.025621917
4.77712725
4.736977667
4.961430667
5.151696417
5.271520083
5.4096635
5.2071365
5.022448417
4.755826333
4.614269
4.633935083
4.70846425
4.831172917
5.128135583
5.177998
5.122654083
4.901230333
4.7230335
4.374910167
4.526084167
4.867043083
4.955324083
5.421684333
5.232428333
4.998310583
4.772030417
4.488723417
4.447852583
4.616048083
4.91243375
5.14323375
5.3340765
5.184729667
4.93003225
4.600805667
4.382411167
4.600805667
4.930272667
5.094092583
5.195308
5.309361667
5.387064333
5.038171667
4.622250833
4.328846333
4.646340583
4.8465115
5.026583583
5.2030975
5.365715333
5.304024417
4.950275333
4.788282583
4.572628833
4.534883417
4.6405225
4.923541
5.239352333
5.277290083
5.257095083
5.263634417
4.998887583
4.432754417
4.44967975
4.6797585
4.945082333
5.2036745
5.28834925
5.2244465
4.99552175
4.585755583
4.452660917
4.57142675
4.866418
5.238631083
5.365571083
5.145349417
4.88041025
4.5274305
4.524353167
4.662063833
4.823143
5.105296
5.11957675
4.846223
4.7028385
4.405779667
4.42804225
4.57863925
4.958738
5.178767333
5.23584225
5.26267275
5.291041917
4.751931583
4.36212
4.225707583
4.27975325
4.535797
4.864638917
5.102218667
5.208050083
5.122606
5.039902667
4.762894583
4.415540583
4.281965083
4.220274167
4.513342083
4.751835417
4.925849
5.270702667
5.30306275
4.968210417
4.632156
4.487569417
4.197290333
4.228736833
4.4512665
5.04341275
5.078561667
4.987588
4.84982925
4.62854975
4.40582775
4.323557167
4.341155667
4.523103
5.298831417
5.187758917
5.07716725
4.986049333
4.80511175
4.547385083
4.532383083
4.706925583
5.233197667
5.388506833
5.472508417
5.315997167
5.131886083
4.913924333
4.8418955
4.7605385
4.851896833
5.558625667
5.636232167
5.601852583
5.531506667
4.973788083
4.93118625
4.899932083
4.951188917
5.43836925
5.583532833
5.683642333
5.586465917
5.417501083
5.042643417
4.834154083
4.861802
5.0721185
5.266038583
5.398940917
5.590216417
5.578916833
5.42654075
5.165496333
4.895027583
4.708945083
4.87521725
5.14583025
5.298975667
5.569155917
5.539151917
5.24161225
4.910895083
4.705627333
4.671969
4.750681417
5.002253417
5.217811
5.479720917
5.685373333
5.087216667
4.821363917
4.697934
4.689327083
4.970374167
5.0611555
5.255652583
5.373072083
5.392593917
5.348886167
5.305178417
5.019707667
4.761019333
4.836798667
4.931378583
5.156456667
5.464574667
5.5446815
5.584542583
5.558577583
5.302581917
5.023169667
4.831846083
4.950852333
5.167227333
5.288012667
5.464093833
5.61579675
5.629115833
5.6121905
5.572040917
5.25228675
4.9613345
4.877909917
5.085052917
5.44933225
5.657677333
5.70667425
5.59848675
5.364705583
5.167083083
5.0605785
4.89310425
4.823960417
4.907288833
5.084716333
5.44558175
5.616181417
5.465440167
5.23786175
4.883247167
4.792465833
5.066011917
5.303543583
5.500204417
5.568819333
5.40432625
5.005378833
4.619558167
4.58556325
4.787272833
5.203626417
5.5164085
5.6064205
5.311669667
5.045672667
4.762077167
4.6468695
4.919886667
5.24680525
5.485923667
5.740476833
5.707443583
5.609113167
5.472893083
5.788079333
5.970459417
6.186401667
6.368926
6.381283417
5.91872175
5.375091583
5.020140417
4.959507333
4.920752167
5.234159333
5.563626333
5.682536417
5.8181795
5.767355417
5.565357333
5.154821833
4.809054583
4.614605583
4.541518917
4.8765155
5.344125917
5.429762333
5.457217917
5.428223667
5.05524125
4.80568875
4.788571083
4.75202775
4.732073167
4.916857417
5.104670917
5.321574833
5.44154275
5.231466667
4.93522525
4.761307833
4.562819833
4.4864635
4.80597725
5.21708975
5.404518583
5.52145725
5.399085167
5.195788833
4.833144333
4.610614667
4.621673833
4.767558667
4.92772425
5.137127167
5.35355025
5.30854425
5.285848917
5.111162167
4.870120417
4.920030917
5.001195583
5.076494083
5.286666333
5.53761325
5.665226417
5.549009
5.242525833
5.183671833
4.91820375
5.023939
5.170448917
5.291474667
5.37028325
5.496261583
5.524198
5.369177333
5.068993083
4.833913667
4.780108417
5.06505025
5.22862975
5.345905
5.599015667
5.450582417
5.305178417
5.04197025
4.777367667
4.753518333
4.793619833
4.875073
5.312390917
5.5394885
5.52665025
5.452313417
5.328066083
5.02754525
4.92310825
4.97273025
5.04658625
5.3438855
5.555307917
5.466738417
5.32296925
5.012350917
4.7236105
4.69836675
4.918251833
5.345135667
5.50530125
5.55521175
5.484336917
5.232572583
4.843963083
4.7790025
4.911664417
5.127895167
5.347732167
5.43375325
5.541027167
5.532276
5.330662583
4.996194917
4.690673417
4.80655425
5.097025667
5.384467833
5.601275583
5.713790583
5.657677333
5.327777583
5.026775917
4.74596925
4.670238
4.94214925
5.177661417
5.326094667
5.574733583
5.550691917
5.333788
5.15361975
5.017207333
4.949121333
4.866369917
4.915943833
5.119240167
5.297533167
5.590553
5.720426083
5.634885833
5.323979
5.092409667
4.880746833
4.80222675
4.811362583
5.0917365
5.48741425
5.568434667
5.463132167
5.302101083
4.854878
4.777752333
4.93782175
5.197375583
5.588437333
5.591514667
5.461833917
5.26671175
4.944697667
4.765539167
4.823479583
5.0830815
5.557664
5.620605083
5.421540083
5.1373195
4.695529833
4.713513
4.91127975
5.218051417
5.579013
5.710328583
5.607478333
5.389708917
4.90291325
4.899210833
4.90810625
4.935273333
5.610411417
5.724753583
5.773510083
5.425290583
4.892863833
4.786984333
4.889161417
5.14958075
5.570935
5.793993583
5.784521167
5.672535083
5.49145325
5.209684917
5.079571417
5.080485
5.1921345
5.58435025
5.82957525
6.0039735
5.938820583
5.522082333
5.327681417
5.2377175
5.450390083
5.854434333
6.194191167
6.344595833
6.174957833
5.582859667
5.544777667
5.5637225
5.6693135
6.224099
6.450331083
6.530101333
6.361809667
5.766730333
5.643685083
5.775000667
5.89506475
6.42677025
6.549334667
6.611266
6.6329035
6.28050075
6.026139917
5.918625583
5.820439417
5.97238275
6.300503417
6.542843417
6.72565625
6.794078833
6.601072333
6.32002525
6.025611
5.769759583
5.792022167
5.955890167
6.5255815
6.797444667
6.7044515
6.510964167
6.247419417
5.87400425
5.762883667
5.741101917
5.843182833
6.023783833
6.303196083
6.545151417
6.573280167
6.454562417
6.136731583
5.863474
5.685373333
5.572089
6.021620083
6.241360917
6.432299833
6.587801333
6.258719
5.970411333
5.6981635
5.64306
5.992818167
6.239004833
6.486008917
6.557797333
6.084993917
5.92391475
5.665947667
5.590553
5.986423083
6.3011285
6.4240295
6.438983417
6.00325225
5.78154
5.536218833
5.566559417
5.889102417
6.111680167
6.327189667
6.327718583
6.067924333
5.816063833
5.487895083
5.499194667
5.90083475
6.121393
6.405517417
6.496346833
6.254728083
5.879581917
5.660033417
5.438850083
5.518668417
5.650320583
5.942523
6.178179417
6.456678083
6.502164917
6.18875775
5.971709583
5.55925075
5.338500167
5.553288417
5.977816167
6.338008417
6.408498583
6.427972333
6.469852917
6.3472885
6.378831167
6.465333083
6.513176
6.669543
6.887552833
7.199806
6.832305083
6.345605583
5.933868
5.8020235
5.743650333
5.796493917
6.085715167
6.442589667
6.544862917
6.462159583
6.328728333
6.112064833
5.777741417
5.458468083
5.262191917
5.3346535
5.593486083
6.188421167
6.443839833
6.206548583
6.026380333
5.823997583
5.59444775
5.47875925
5.336144083
5.4004315
5.617575833
5.971276833
6.08691725
6.062875583
5.613296417
5.372495083
5.09938175
5.12130775
5.426204167
5.698500083
5.91468275
6.087927
6.096245417
5.912999833
5.614883167
5.384323583
5.154918
5.18593175
5.237236667
5.5660305
5.906556667
6.085090083
5.840201667
5.587331417
5.270798833
5.152802333
5.247863083
5.618008583
5.92218375
5.94699475
5.815583
5.593101417
5.251517417
4.979558083
4.9976855
5.211704417
5.51857225
5.807456917
5.956130583
5.7933685
5.511167417
5.315852917
5.0415375
4.8938255
4.968595083
5.196221583
5.571127333
5.77562575
5.678305083
5.620605083
5.299408417
4.994319667
4.797081833
4.961286417
5.097314167
5.35153075
5.7818285
5.786733
5.618729833
5.173382
4.997445083
4.815016917
4.8055445
4.974509333
5.306669
5.625942333
5.4846735
5.382496417
5.249497917
5.087986
4.879881333
4.827710917
4.903682583
5.247478417
5.644742917
5.674795
5.6900855
5.62012425
5.35441575
4.887382333
4.733611833
4.853820167
5.203770667
5.620364667
5.68676775
5.74821825
5.455727333
4.70557925
4.700626667
4.891229
5.178046083
5.692489667
5.633154833
5.514485167
5.340808167
4.893633167
4.90666375
4.94589975
5.177998
5.460776083
5.669698167
5.725186333
5.655754
5.437167167
5.066108083
4.87464025
4.802274833
5.0825045
5.369369667
5.88900625
5.846164
5.673737167
5.357396917
4.932099833
4.778617833
4.905846333
4.99263675
5.222763583
5.865301167
5.952283917
5.64320425
5.228533583
4.759624917
4.733515667
4.934600167
5.243247083
5.546075917
5.770625083
5.838086
5.6641205
5.445726
5.041585583
4.800688083
4.729332417
4.893633167
5.55492325
5.721003083
5.772933083
5.689604667
5.067165917
4.8863245
4.838770083
4.943351333
6.069463
6.221214
6.076002333
5.900979
5.459525917
5.235890333
5.313929583
5.5567985
6.058403833
6.209289333
6.362386667
6.147261833
5.812072917
5.416395167
5.2625285
5.378842083
5.509532583
6.1909215
6.407248417
6.335363833
6.097495583
5.497079
5.205453583
5.127029667
5.3923535
5.693595583
6.004935167
6.240735833
6.219242583
5.993779833
5.554586667
5.20699225
5.11957675
5.195692667
5.38441975
5.732014167
5.9612755
6.250448667
6.260546167
5.991231417
5.723263
5.349270833
5.029901333
4.991627
5.189586083
5.614883167
5.97642175
6.162985083
6.032535
5.396055917
5.106978917
5.010716083
4.882814417
5.143185667
5.434666833
5.749708833
6.00498325
6.003108
5.845058083
5.394276833
4.844107333
4.691971667
4.940274
5.507657333
5.814380917
5.978970167
5.944494417
5.191605583
4.81001625
4.523103
4.71856175
5.6173835
5.88352475
6.086580667
6.077541
5.3225365
4.883199083
4.681778
4.744767167
5.475681917
5.887756083
6.060471417
5.972719333
5.254739
4.890026917
4.792369667
4.84925225
5.541892667
6.00469475
6.175246333
6.101005667
5.79062775
5.222330833
4.845309417
4.583159083
4.770251333
5.276039917
5.782213167
6.125383917
6.443839833
6.252900917
5.856453833
5.273443417
5.039037167
4.988838167
5.413221667
5.761537333
6.181160583
6.439800833
6.058307667
5.46923875
5.105680667
5.141550833
5.534584
6.115286417
6.557845417
6.7165685
6.5469305
6.370128083
6.283866583
6.336806333
6.40253625
6.694979083
7.123593917
7.393341417
7.493258583
6.832449333
6.327141583
5.842076917
5.58348475
5.979499083
6.24790025
6.595879333
6.695700333
6.641029583
6.558759
6.069126417
5.708501417
5.56213575
5.446831917
5.605218417
5.98969275
6.353154667
6.636028917
6.52861075
6.188517333
5.889390917
5.62041275
5.44990925
5.385381417
5.512658
5.842076917
6.153512667
6.395660333
6.474853583
6.208471917
5.868618917
5.438417333
5.265509667
5.22545625
5.376389833
5.751439833
6.13221175
6.249823583
6.173323
5.96661275
5.60627625
5.437744167
5.570742667
5.961756333
6.200057333
6.465813917
6.397199
6.073502
5.8326045
5.711771083
5.705568333
5.703548833
6.070424667
6.540679667
6.5296205
6.304638583
5.973055917
5.6202685
5.664409
6.062058167
6.16481225
6.380225583
6.70661525
6.408931333
5.849289417
5.544921917
5.439715583
5.576801167
5.918866
6.125912833
6.370128083
6.676947833
6.41667275
6.102015417
5.782934417
5.44111
5.604064417
5.939253333
6.299301333
6.634826833
6.411575917
6.033737083
5.6404635
5.347684083
5.393459417
5.704702833
6.11576725
6.373638167
6.460765167
6.453360333
6.407488833
6.035371917
5.469334917
5.427598583
5.5660305
5.858088667
6.467352583
6.434319333
6.229820917
6.073886667
5.5100615
5.494290167
5.84515425
6.082830167
6.436098417
6.56957775
6.379648583
6.0720595
5.634356917
5.37518775
5.4235115
5.6456565
6.113507333
6.364838917
6.4142205
6.422779333
6.321035
6.048691
5.620893583
5.391247583
5.328498833
5.597380833
5.95189925
6.53899675
6.514955083
6.357482167
6.10855475
5.821593417
5.435003417
5.374755
5.566511333
6.050085417
6.446628667
6.572558917
6.526783583
6.382822083
5.914346167
5.5827635
5.4206265
5.618922167
5.820439417
5.932329333
6.263960083
6.448503917
6.457303167
6.417201667
6.208327667
5.711963417
5.492414917
5.49174175
5.678593583
6.31944825
6.498751
6.552796667
6.479758083
5.580070833
5.50616675
5.4679405
5.646858583
6.180439333
6.44552275
6.464708
6.3622905
5.418366583
5.393747917
5.491982167
5.635030083
6.3865245
6.585637583
6.51245475
6.25626675
5.6456565
5.335903667
5.164919333
5.640800083
6.56640425
6.6513675
6.473555333
6.261700167
5.65936025
5.37893825
5.453275083
5.71792575
6.575251583
6.741716083
6.701662667
6.661128417
6.278144667
5.81370775
5.581898
5.513283083
5.81659275
6.729166333
7.004010667
6.86932925
6.633769
6.391092417
5.998443917
5.792406833
5.809764917
6.10278475
6.448888583
6.80095475
7.125853833
7.187304333
6.4748055
6.07047275
5.843375167
5.85467475
6.612083417
6.899814083
6.98069025
7.000981417
6.502261083
6.192123583
5.842894333
5.637241917
6.465910083
6.829564333
7.120420417
7.06406675
6.770998833
6.381523833
5.979643333
5.760575667
5.9376185
6.412778
6.63939475
6.806243917
6.965736333
6.14028975
5.963343083
5.71706025
5.650657167
6.224099
6.53870825
6.724935
6.702480083
6.421481083
5.951081833
5.674025667
5.424184667
5.422020917
5.611325
6.042151667
6.34916375
6.604967083
6.455091333
6.117354
5.732302667
5.542325417
5.356819917
5.244449167
5.450967083
5.7552865
6.206596667
6.506011583
6.467929583
6.192460167
5.749035667
5.300081583
5.081398583
5.394901917
5.77216375
6.084465
6.243765083
6.0870615
5.678160833
5.240506333
5.097218
5.36537875
5.612142417
5.88035125
6.103121333
5.994116417
5.950024
5.690902917
5.23757325
5.089717
5.4200495
5.69773075
6.037631833
6.157744
6.085811333
5.931079167
5.673641
5.258585667
4.9896075
5.086880083
5.600313917
5.796926667
5.85236675
5.900594333
6.03065975
5.7045105
5.180834917
4.930657333
4.896950917
5.061203583
5.4673635
5.706433833
5.803466
5.62762525
5.68417125
5.398989
5.1996355
5.0686565
5.19776025
5.37374525
5.58059975
5.827507667
6.1020635
6.262373333
6.24991975
6.292569667
6.040997667
5.815246417
5.91583675
6.117305917
6.48908625
6.579194417
6.258911333
5.953534083
5.797647917
5.484721583
5.135636583
5.125539083
5.150398167
5.617479667
5.768461333
5.559443083
5.321622917
4.998454833
4.723514333
4.730294083
5.027304833
5.415337333
5.401922083
5.342106417
5.44760125
5.197567917
5.0328825
4.68971175
4.8563205
5.016197583
5.274934
5.584302167
5.34720325
5.236659667
5.09995875
4.886372583
4.935994583
5.044662917
5.23872725
5.638780583
5.610699917
5.32066125
5.029324333
4.972826417
4.9590265
5.076109417
5.368071417
5.7685575
5.64551225
5.378553583
5.151648333
4.8753615
4.810785583
5.100487667
5.35383875
5.647676
5.733649
5.699221333
5.588437333
5.415914333
5.100872333
5.07803275
5.15996675
5.3084
5.703693083
5.794474417
5.750333917
5.641857917
5.088563
4.882910583
4.8493965
5.13804075
5.512321417
5.658158167
5.6698905
5.56069325
5.098949
4.900653333
4.975855667
5.160688
5.605891583
5.715136917
5.670804083
5.398940917
5.129722333
4.987636083
4.941476083
5.007783
5.170545083
5.371918083
5.477941833
5.529391
5.628442667
5.48770275
5.137127167
4.933927
4.89223875
5.114576083
5.372783583
5.480009417
5.549345583
5.588196917
5.445485583
5.203049417
4.91070275
4.80164975
4.755537833
4.982202667
5.459574
5.525255833
5.582523083
5.635174333
5.358791333
5.175786167
4.987011
4.894450583
4.8413185
5.386295
5.732735417
5.749901167
5.57886875
5.084475917
4.87983325
4.849108
4.956381917
5.477989917
5.578243667
5.610074833
5.523813333
5.085485667
4.876900167
4.7697705
4.890988583
5.2342555
5.551894
5.656090583
5.616566083
5.238583
4.98888625
4.820065667
4.879737083
5.332826333
5.658398583
5.764278083
5.663303083
5.215406833
4.9884535
4.91329925
4.980664
5.37518775
5.668544167
5.757306
5.697875
5.457602583
5.06187675
4.970326083
4.88156425
4.878871583
5.105536417
5.418943583
5.614306167
5.646185417
5.6727755
5.469142583
5.090871
4.979461917
4.862330917
4.702357667
4.902240083
5.300706667
5.55780825
5.606324333
5.457169833
5.131838
5.015380167
4.971624333
4.97388425
5.17439175
5.42538675
5.659456417
5.711626833
5.312439
5.06331925
5.023987083
5.036296417
5.11034475
5.396055917
5.562808917
5.6623895
5.70465475
5.704558583
5.33450925
5.035719417
5.015812917
5.026295083
5.374418417
5.746535333
5.873763833
5.964064333
5.918481333
5.639357583
5.511023167
5.349703583
5.114335667
5.039421833
5.264499917
5.567088333
5.77245225
5.990414
6.06585675
5.973440583
5.728696417
5.472268
5.353742583
5.386823917
5.582811583
5.821401083
6.098361083
6.303388417
6.193037167
5.93055025
5.6277695
5.423751917
5.510013417
5.709078417
5.828469333
6.129711417
6.24386125
6.228763083
6.170341833
5.84457725
5.558577583
5.451688333
5.452746167
5.64464675
5.764999333
6.06556825
5.954832333
5.931656167
5.788800583
5.490347333
5.3225365
5.471210167
5.915644417
6.075713833
6.004165833
5.814332833
5.639598
5.43577275
5.267481083
5.425723333
5.59790975
5.727686667
5.89016025
5.70955925
5.506647583
5.250074917
5.23728475
5.331431917
5.595746
5.78976225
5.875254417
5.776443167
5.55809675
5.392593917
5.152994667
5.264211417
5.341481333
5.50385875
5.687969833
5.873379167
5.662629917
5.442071667
5.0871205
4.911183583
5.185979833
5.449524583
5.6081515
5.787213833
5.753218917
5.713069333
5.447360833
5.218628417
5.084860583
4.9457555
5.070579833
5.373601
5.684844417
5.654551917
5.4639015
5.277915167
4.938350667
5.081158167
5.2544505
5.386823917
5.587427583
5.655705917
5.575887583
5.3583105
5.158428083
4.993261833
4.9734515
5.20554975
5.312775583
5.739370917
5.66513025
5.4990985
5.24218925
4.946861417
4.815642
4.987203333
5.169102583
5.314410417
5.676910667
5.616518
5.416395167
5.239977417
5.0946215
5.059713
5.1332805
5.379034417
6.01392675
6.168899333
6.054941833
5.974450333
5.952139667
5.86534925
5.925213
6.030130833
6.234292667
6.485287667
6.259344083
5.88006275
5.58146525
5.354944667
5.212281417
5.09418875
5.239929333
5.499483167
5.696480583
5.820727917
5.739082417
5.632866333
5.344702917
5.004705667
4.695289417
4.770107083
4.985472333
5.475345333
5.6993175
5.653638333
5.5400655
4.915559167
4.862330917
4.923012083
5.091832667
5.41226
5.432070333
5.43173375
5.27378
4.800014917
4.674228917
4.83684675
5.159918667
5.50789775
5.577762833
5.601419833
5.56098175
4.938446833
4.690096417
4.825402917
5.027497167
5.154725667
5.422405583
5.812938417
5.792310667
5.637482333
5.075772833
4.960132417
4.903249833
5.07024325
5.552471
5.754661417
5.7443235
5.6531575
5.386295
5.244833833
4.985039583
4.9411395
5.005859667
4.965133083
5.243439417
5.723791917
5.778703083
5.643011917
5.469767667
5.322873083
5.104190083
4.964315667
4.945226583
5.32845075
5.56819425
5.728215583
5.63974225
5.45308275
5.1979045
5.06851225
4.910847
5.081158167
5.26815425
5.57223325
5.724945917
5.59329375
5.408846083
5.16083225
5.027401
4.825691417
4.8742075
5.101016583
5.338740583
5.44760125
5.553721167
5.61320025
5.112027667
4.906711833
4.8551665
5.030863
5.31114075
5.661620167
5.75918125
5.584446417
5.172997333
4.9901845
4.885410917
4.832567333
4.917001667
5.198000667
5.574300833
5.568578917
5.475922333
5.081975583
5.056828
5.0369215
4.868726
5.191461333
5.419232083
5.52982375
5.587908417
5.628106083
5.356050583
5.082167917
4.971432
4.98628975
5.105873
5.45106325
5.56098175
5.64839725
5.503762583
5.216031917
5.018169
4.994175417
5.072743583
5.266952167
5.530737333
5.829431
5.559731583
5.19256725
5.03764275
4.888440167
5.262576583
5.424713583
5.59992925
5.698644333
5.471210167
5.302053
5.052789
4.897816417
5.086447333
5.40490325
5.561174083
5.619210667
5.575310583
5.281281
5.129193417
5.0109565
5.090245917
5.321671
5.596082583
5.78774275
5.745766
5.589783667
5.14265675
4.981866083
4.880025583
4.793956417
5.035719417
5.1938655
5.389757
5.609353583
5.59762125
5.503185583
5.458948917
5.214589417
4.952871833
4.918732667
5.0236505
5.2792615
5.535786083
5.706337667
5.756680917
5.573771917
5.439379
5.237429
5.045672667
5.0571165
5.249065167
5.540594417
6.055278417
5.830969667
5.378457417
5.093371333
5.019082583
5.13284775
5.591178083
5.850876167
6.066578
5.817891
5.531314333
5.265894333
5.304601417
5.3860065
5.560308583
5.916558
6.148608167
6.029121083
5.765047417
5.4373595
5.50934025
5.641329
5.89694
6.043161417
6.20289425
6.16394675
5.910595667
5.665226417
5.412837
5.566222833
5.840153583
6.1020635
6.055422667
5.854819
5.539392333
5.28200225
5.206271
5.312198583
5.687104333
5.918385167
5.979210583
6.110910833
5.944350167
5.5383345
5.272000917
5.204011083
5.177421
5.21362775
5.358839417
5.683642333
5.9358875
5.77447175
5.631327667
5.395911667
5.059376417
5.011437333
5.247911167
5.518187583
5.843856
5.824141833
5.68821025
5.461882
5.054568083
5.02004425
5.080677333
5.32845075
5.83447975
5.716435167
5.51943775
5.36941775
4.894691
5.022015667
5.0830815
5.420097583
5.80332175
5.819718167
5.710665167
5.586273583
5.306669
4.934311667
4.811554917
4.888824833
5.180931083
5.489481833
5.663783917
5.79495525
5.637674667
5.5019835
5.241996917
4.974845917
4.856705167
4.897816417
5.006629
5.264740333
5.598102083
5.817506333
5.863425917
5.628971583
5.2088675
4.969124
4.98311625
4.9746055
5.045095667
5.344847167
5.625653833
5.621230167
5.652965167
5.501310333
4.957391667
4.75462425
4.762317583
5.016822667
5.698836667
5.714800333
5.70696275
5.572666
4.947534583
4.78693625
4.767270167
4.9832605
5.575454833
5.791397083
5.843279
5.781924667
5.54540275
5.596515333
5.966228083
6.24097625
6.348057833
6.450186833
6.5325055
6.487211
6.229388167
5.431781833
5.097410333
5.260989833
5.342779583
5.520110917
5.80562975
5.88006275
5.807168417
5.459958667
5.080148417
4.880217917
4.831317167
4.87839075
5.14323375
5.405816833
5.64118475
5.514340917
5.328354583
5.019948083
4.8470885
5.0553855
5.193
5.148234417
5.200116333
5.470488917
5.464718917
5.296186833
5.1350115
4.90493275
4.746209667
4.849108
5.203049417
5.446206833
5.65849475
5.549970667
5.201558833
4.978740667
4.854541417
4.80713125
5.369513917
5.645848833
5.696913333
5.534920583
5.482654
5.19660625
4.952871833
4.861753917
4.939071917
5.230745417
5.636616833
5.86650325
5.910836083
5.87486975
5.771634833
5.483711833
5.227571917
5.055722083
5.027016333
5.210069583
5.458612333
5.711146
5.831498583
5.730860167
5.447072333
5.223629083
5.09938175
4.89483525
4.894306333
5.15650475
5.374947333
5.532612583
5.706001083
5.754228667
5.494434417
5.223773333
5.038941
4.9803755
4.973932333
4.914693667
5.262480417
5.576945417
5.750910917
5.75687325
5.548239667
5.311477333
5.0721185
4.912241417
4.992300167
5.119480583
5.388603
5.5250635
5.596996167
5.596371083
5.252815667
4.978259833
4.926089417
4.942197333
5.090486333
5.4062015
5.653686417
5.718454667
5.523524833
5.2942635
5.164727
4.945082333
5.080869667
5.3773515
5.749035667
5.926944
5.590456833
5.380909667
5.02004425
4.861898167
4.95686275
5.0426915
5.249497917
5.522851667
5.811592083
5.62387475
5.35153075
5.00619625
4.92758
5.390959083
5.504964667
5.5960345
5.763172167
5.557664
5.328498833
5.042066417
4.845597917
4.797129917
5.180642583
5.577089667
5.814429
5.982432167
5.777501
5.531650917
5.181363833
4.9734515
4.92772425
4.90002825
4.9861455
5.341625583
5.611276917
5.722589833
5.70148125
5.569396333
5.214974083
5.016245667
4.982395
5.089332333
5.331431917
5.624596
5.756969417
5.445149
5.098852833
5.03591175
4.972586
4.760009583
4.915847667
5.40807675
5.711146
5.72052225
5.522947833
5.231178167
4.91791525
4.850310083
4.797755
4.930080333
5.278299833
5.694509167
5.525400083
5.360714667
5.295898333
4.97590375
4.92887825
5.03418075
5.23959275
5.5135235
5.65936025
5.47443175
5.31171775
5.129193417
4.866418
4.885939833
5.142704833
5.549970667
5.78110725
5.85323225
5.67868975
5.498281083
5.19689475
5.149340333
5.248920917
5.561126
5.845394667
5.823757167
5.96834375
6.0585
5.909634
5.511744417
5.207809667
5.33768275
5.604016333
5.821689583
6.207462167
6.109179833
5.900498167
5.654648083
5.2671445
5.083418083
5.31056375
5.702154417
6.05575925
6.082108917
5.98074925
5.643637
5.150109667
5.271423917
5.581080583
5.771490583
5.941609417
5.913624917
5.677583833
5.437840333
5.0351905
5.066011917
5.230985833
5.5619915
5.803417917
5.924684083
5.84024975
5.532372167
5.146455333
4.947438417
4.709233583
4.82848025
4.960997917
5.205309333
5.750910917
5.714800333
5.41182725
5.133617083
4.968354667
4.724235583
4.695529833
4.891902167
5.180306
5.415193083
5.510013417
5.536218833
5.335999833
4.925608583
4.660044333
4.4062605
4.528392167
4.941812667
5.259739667
5.491357083
5.500637167
5.36278225
5.154244833
4.523631917
4.382555417
4.5060815
4.599074667
5.29873525
5.423319167
5.3479245
5.000330083
4.561377333
4.457276917
4.523776167
4.77279975
5.253488833
5.428752583
5.43836925
5.310227167
4.627059167
4.32187425
4.347935417
4.605373583
5.029035833
5.2481035
5.26498075
5.18564325
4.621385333
4.380968667
4.608979833
4.754287667
5.239929333
5.473662417
5.235313333
4.95643
4.455834417
4.389816
4.417848583
4.651966333
5.341289
5.32816225
5.0484615
4.899114667
4.467662917
4.62191425
4.712695583
4.856993667
5.3052265
5.83880725
6.237562333
6.261844417
6.18067975
5.838326417
5.479528583
5.311813917
5.36451325
5.394421083
5.614883167
5.701000417
5.62041275
5.421492
5.126981583
4.80482325
4.6705265
4.64528275
5.134915333
5.24593975
5.351290333
5.352829
4.829826583
4.444005917
4.365053083
4.40727025
4.849011833
5.069041167
5.383602333
5.272000917
5.13371325
4.781214333
4.427417167
4.390633417
4.466893583
4.67615225
5.080388833
5.293061417
5.30912125
5.26094175
5.11207575
5.017592
4.658072917
4.478433583
4.445977333
4.659948167
5.18362375
5.34662625
5.402835667
5.26757725
5.11799
4.955372167
4.655716833
4.483530417
4.545413667
4.895268
5.229110583
5.409278833
5.440484917
5.441446583
5.322632667
5.058751333
4.707983417
4.660380917
4.6053255
4.67817175
4.984462583
5.2463725
5.375716667
5.127750917
4.95224675
4.715628667
4.542721
4.593256583
4.647398417
4.90031675
5.281281
5.465344
5.218147583
4.896758583
4.814488
4.618788833
4.633790833
4.917386333
5.285368083
5.389949333
5.29094575
5.139098583
4.858868917
4.7686165
4.749094667
4.788138333
4.850839
5.13775225
5.405528333
5.449428417
5.282386917
5.083754667
4.990473
4.92541625
5.182133167
5.29065725
5.524967333
5.50068525
5.340519667
5.332105083
5.13919475
5.052260083
4.917145917
5.120778833
5.525303917
5.49404975
5.504387667
5.559587333
5.453034667
5.216272333
5.16083225
4.969172083
5.081590917
5.55434625
5.728552167
5.871888583
5.757786833
5.515062167
4.970903083
5.148234417
5.28921475
5.292628667
5.911413083
5.963679667
5.962237167
5.68215175
5.1730935
4.967873833
4.955372167
5.097121833
5.551365083
5.779809
5.716435167
5.756392417
5.87963
5.375380083
5.282963917
5.161313083
5.274020417
5.66051425
5.918096667
5.757786833
5.563482083
5.420915
5.143570333
4.883535667
5.036536833
5.449428417
5.86534925
5.828084667
5.728936833
5.751343667
5.527034917
5.339317583
5.024035167
4.916953583
5.206751833
5.380188417
5.59444775
5.691624167
5.779905167
5.63454925
5.3438855
5.172997333
5.011148833
5.045095667
5.1332805
5.351482667
5.484865833
5.55463475
5.545306583
5.603343167
5.53472825
5.183671833
4.97273025
4.986193583
5.4333205
5.772115667
6.092302583
6.172649833
5.687825583
5.54828775
5.4333205
5.326094667
5.388074083
5.637674667
5.920500833
6.27271125
6.37310925
5.950601
5.808418583
5.712107667
5.674843083
6.150868083
6.244630583
6.294829583
6.348154
6.013542083
5.89117
5.86015625
5.772692667
6.11057425
6.272326583
6.31396675
6.333152
6.2717015
6.125960917
5.863137417
5.522370833
5.450438167
5.851982083
6.1684185
6.348827167
6.330218917
6.148127333
5.918914083
5.6877775
5.482269333
5.543142833
5.7524015
5.903238917
5.866743667
6.137885583
6.297426083
6.010512833
5.79437825
5.678208917
5.625942333
5.489097167
5.631712333
5.708741833
5.856021083
6.021523917
6.041718917
5.93660875
5.5567985
5.252671417
5.258152917
5.402210583
5.568242333
5.881457167
6.151974
6.021908583
5.865253083
5.597092333
5.332008917
5.364561333
5.481019167
5.589639417
5.7489395
6.061433083
5.819429667
5.72831175
5.58723525
5.324556
5.279213417
5.43577275
5.554394333
5.721435833
5.9595445
5.84024975
5.486500667
5.2457955
5.121259667
5.450919
5.682632583
5.80014825
6.006810417
5.729994667
5.5169855
5.35932025
5.090053583
5.138954333
5.5793015
5.81486175
5.785338583
5.862271917
5.88208225
5.605603083
5.287291417
5.103180333
5.125010167
5.156985583
5.34316425
5.61637375
5.915163583
5.92391475
5.6520035
5.433128167
5.369225417
5.1563605
5.254979417
5.481307667
5.706914667
5.689845083
5.6110365
5.530208417
5.366869333
5.4815
5.780289833
6.205058
6.56726975
6.575588167
6.487739917
6.43355
6.080522167
5.689171917
5.907951083
6.000992333
6.105910167
6.01710025
5.89939225
5.714031
5.403364583
5.291715083
5.36682125
5.5510285
5.80187925
5.812072917
5.67436225
5.533814667
5.631712333
5.560741333
5.28257925
5.069522
5.189922667
5.497127083
5.603295083
5.57338725
5.705616417
5.6698905
5.4269735
5.121211583
5.050577167
5.101160833
5.294936667
5.333307167
5.48654875
5.766441833
5.799330833
5.5619915
5.454044417
5.34633775
5.238583
5.149628833
5.189874583
5.380621167
5.6837385
5.742063583
5.734803
5.612959833
5.104959417
5.343548917
5.335999833
5.3456165
5.635799417
5.639357583
5.639982667
5.594495833
5.407259333
5.191365167
5.348213
5.577233917
5.6600815
5.743217583
5.6381555
5.63829975
5.438705833
5.130155083
5.205117
5.279453833
5.220455583
5.400623833
5.722445583
5.745814083
5.637818917
5.58031125
5.30508225
5.1967505
5.213195
5.397738833
5.838086
5.951995417
5.851837833
5.53819025
5.14352225
5.0115335
5.034709667
5.130203167
5.428608333
5.60973825
5.63152
5.620364667
5.422069
5.339365667
5.147417
5.040623917
5.155158417
5.286425917
5.38817025
5.625701917
5.790146917
5.914442333
5.771682917
5.416924083
5.132655417
5.073945667
5.229110583
5.826738333
6.011378333
5.988346417
5.79178175
5.392738167
5.294792417
5.1707855
5.15823575
5.833085333
5.879004917
5.83938425
5.623442
5.317439667
5.11611475
5.207473083
5.297485083
5.472219917
5.674410333
5.533526167
5.6052665
5.81947775
5.666668917
5.275991833
5.182614
5.16919875
5.285271917
5.5244865
5.588437333
5.694172583
5.9785855
5.81370775
5.727398167
5.648878083
5.335903667
5.153860167
5.231851333
5.554298167
5.831787083
5.80966875
5.878668333
5.849097083
5.379948
5.145734083
5.075388167
5.255364083
5.439619417
5.676045167
5.702154417
5.941369
5.893718417
5.532949167
5.18102725
5.0750035
5.09591975
5.543575583
5.716242833
5.984980583
6.052153
5.801638833
5.365042167
5.100151083
5.201462667
5.604641417
5.5919955
5.71619475
5.902469583
5.688066
5.313016
5.042451083
5.16689075
5.892372083
6.0951395
6.025659083
6.116392333
5.7991385
5.80851475
5.5337185
5.305322667
5.645704583
5.987577083
6.337671833
6.424318
5.998011167
5.660898917
5.4419755
5.44500475
5.93833975
6.259392167
6.482018
6.565683
6.090619667
5.895305167
5.750959
5.584590667
6.066385667
6.29204075
6.512839417
6.558855167
6.443695583
6.131250083
5.860589
5.73177375
5.711771083
5.693307083
5.855347917
6.09932275
6.325651
6.10999725
5.953822583
5.702587167
5.5706465
5.45654475
5.631183417
5.805004667
5.92276075
6.0443635
5.755623083
5.548335833
5.324315583
5.207328833
5.458804667
5.7472085
6.008204833
6.06297175
5.962381417
5.64464675
5.457891083
5.264355667
5.278203667
5.590553
5.990365917
6.031573333
6.010080083
5.857607833
5.723022583
5.53155475
5.370090917
5.207953917
5.383890833
5.635174333
5.923578167
5.977191083
5.784809667
5.585937
5.3369615
5.174584083
5.28719525
5.51770675
5.673064
5.790098833
5.763893417
5.851837833
5.60021775
5.165881
5.042018333
5.184296917
5.269548667
5.471065917
5.6912395
5.923289667
5.996568667
5.703741167
5.561029833
5.291282333
5.041008583
5.071012583
5.486596833
5.770384667
5.61608525
5.738938167
5.731100583
5.451976833
5.298062083
5.10890225
5.140733417
5.289984083
5.582859667
5.929059667
5.7483625
5.432070333
5.177757583
5.1009685
5.2434875
5.383361917
5.635655167
5.67378525
5.619931917
5.504531917
5.492511083
5.374081833
5.230408833
5.13775225
5.37345675
5.782309333
6.015465417
6.508752333
6.641173833
6.499856917
6.294012167
6.230109417
6.07595425
5.989356167
5.953005167
6.045709833
6.26232525
6.2463135
6.204817583
5.800004
5.341625583
5.15333125
5.151552167
5.31719925
5.53645925
5.618826
5.674746917
5.638444
5.587091
5.56732875
5.290753417
5.042739583
5.005138417
5.210790833
5.411106
5.609930583
5.76033525
5.744852417
5.303255083
4.957487833
4.960228583
4.967441083
4.985520417
5.226466
5.653397917
5.797119
5.723263
5.60656475
5.440581083
5.112027667
5.045384167
5.216464667
5.355810167
5.487943167
5.56127025
5.81313075
5.635655167
5.441735083
5.126548833
5.122654083
5.13861775
5.390334
5.87977425
6.09211025
5.928867333
5.699654083
5.1234715
5.18448925
5.33364375
5.48626025
5.885977
5.983538083
5.801254167
5.588341167
5.1534755
5.196077333
5.380332667
5.53963275
5.766778417
5.999742167
6.03094825
5.817073583
5.609209333
5.402114417
5.1736705
5.145445583
5.25978775
5.436494
5.656571417
5.865974333
5.916317583
5.747833583
5.3138815
5.2186765
5.244256833
5.363551583
5.47039275
5.683498083
5.694653417
5.745381333
5.732543083
5.272962583
5.165544417
5.261470667
5.549682167
5.6410405
5.809284083
5.849577917
5.68965275
5.454958
5.305418833
5.2850315
5.36278225
5.866551333
6.061433083
6.013253583
5.778462667
5.452024917
5.254931333
5.27277025
5.493280417
5.62791375
5.71994525
5.878235583
5.931896583
5.928867333
5.910836083
5.598054
5.227091083
5.30219725
5.596707667
5.732543083
6.0033965
6.10249625
6.002771417
5.852414833
5.537084333
5.34460675
5.28027125
5.409134583
5.692874333
6.014696083
6.119565833
6.131250083
5.885784667
5.723503417
5.60310275
5.446351083
5.302966583
5.604208667
5.84717375
6.001569333
5.98103775
5.909585917
5.642867667
5.419424417
5.386102667
5.53876725
5.7408615
6.028592167
6.265258333
6.24386125
5.707491667
5.52780425
5.419280167
5.388939583
5.566367083
5.750622417
5.956371
6.2088085
6.200682417
5.815534917
5.689604667
5.561799167
5.4973675
5.787550417
5.965026
6.022197083
6.0720595
5.941320917
5.641280917
5.471931417
5.496453917
5.670227083
5.875831417
6.106054417
6.326228
6.335796583
6.084801583
5.962958417
5.869917167
6.038208833
6.073021167
6.154378167
6.356809
6.673197333
6.678438417
6.644732
6.45042725
6.28540525
6.191017667
6.073838583
6.18010275
6.402007333
6.774172333
6.881061583
6.903805
6.62410425
6.297762667
6.373590083
6.432924917
6.567894833
6.90971925
7.004443417
7.027331083
6.920730333
6.699739333
6.601649333
6.342576333
6.494808167
6.735946083
6.897217583
6.916739417
6.986700667
6.795665583
6.470285667
6.274105667
6.4586495
6.506348167
6.539669917
6.72219425
6.894765333
6.883946583
6.764074833
6.648242083
6.54101625
6.439560417
6.293387083
6.437540917
6.725463917
6.837834667
6.769556333
6.598091167
6.498510583
6.292136917
6.20404825
6.189959833
6.2480445
6.3622905
6.605544083
6.644683917
6.68555475
6.647232333
6.418451833
6.043257583
5.917327333
6.164764167
6.161109833
6.255930167
6.631941833
6.747918833
6.654204417
6.388640167
6.246025
6.110381917
6.18702675
6.199913083
6.148463917
6.250015917
6.44148375
6.463505917
6.32406425
6.136010333
6.011137917
6.048691
6.075906167
6.32521825
6.5780885
6.53438075
6.355414583
6.232705917
5.968103333
5.836451167
5.932473583
6.218521333
6.485960833
6.618238083
6.439656583
6.297906917
6.035804667
5.839913167
5.73177375
5.837605167
6.062587083
6.324256583
6.461342167
6.313582083
6.241457083
6.139953167
6.0455175
5.951658833
6.035612333
6.236744917
6.56813525
6.494904333
6.227897583
6.040709167
5.875206333
6.110189583
6.253766417
6.330459333
6.405373167
6.50899275
6.300022583
6.077348667
5.903479333
5.839720833
5.7927915
5.870638417
6.142693917
6.6432895
6.877888083
6.94751275
6.96828475
6.883273417
6.848509167
6.819803417
6.868944583
7.06781725
7.118208583
6.89471725
6.6709855
6.331805667
6.075713833
6.080185583
5.8291425
5.963968167
6.2336195
6.493461833
6.538804417
6.483075833
6.242322583
6.066385667
5.95738075
5.839191917
5.718166167
5.666043833
5.78947375
5.992337333
6.296175917
6.598187333
6.30358075
5.9312715
5.77158675
5.758123417
5.793272333
5.648493417
5.668832667
6.231696167
6.29088675
6.115382583
5.962381417
5.81890075
5.74417925
5.531073917
5.57079075
5.65532125
5.818371833
6.050902833
6.02633225
5.961179333
5.771731
5.45914125
5.371677667
5.33883675
5.5169855
5.764133833
5.943340417
6.020321833
6.08835975
5.97151725
5.869003583
5.558144833
5.490155
5.606660917
5.61637375
5.791156667
6.04623875
6.132981083
5.893429917
5.480923
5.443658417
5.288397333
5.367734833
5.814044333
5.8828035
5.887515667
5.802889
5.590504917
5.3975465
5.371293
5.290705333
5.299745
5.5573755
5.801109917
5.952524333
5.7449005
5.3883145
5.2284855
5.13544425
5.032930583
5.25647
5.34922275
5.771346333
6.035035333
5.9347335
5.36335925
5.232043667
5.101834
5.161890083
5.530737333
5.691768417
5.840345917
5.877081583
5.671861917
5.366340417
5.3179205
5.505974417
5.30075475
5.264644167
5.322873083
5.589206667
5.883909417
5.92276075
5.769807667
5.617143083
5.318160917
5.169871917
5.118663167
5.184537333
5.354752333
5.641136667
5.881986083
5.938964833
5.617575833
5.41096175
5.261278333
5.150398167
5.069137333
5.29498475
5.692345417
5.9612755
6.081003
5.550691917
5.456496667
5.315131667
5.1240485
5.22459075
5.794811
6.00613725
5.941705583
5.536507333
5.337201917
5.314410417
5.0692335
5.102795667
5.373937583
5.608824667
5.825343917
5.98363425
5.835393333
5.371244917
5.073032083
5.013553
5.59935225
5.709366917
5.81803525
5.940263083
5.78918525
5.381053917
5.144291583
5.10370925
5.233005333
5.33018175
5.52780425
5.856598083
5.876216083
5.810293833
5.624596
5.397017583
5.191269
5.076686417
5.194779083
5.489481833
5.788656333
5.92362625
5.74071725
5.86621475
5.738216917
5.369033083
5.216753167
5.443898833
5.769230667
5.876264167
5.83505675
5.714704167
5.649887833
5.453323167
5.093996417
5.476884
5.590745333
5.772692667
5.88092825
6.255834
6.071290167
5.583100083
5.376149417
5.345135667
5.451832583
5.756344333
6.07018425
6.287184333
6.118892667
5.847558417
5.59300525
5.467988583
5.532804917
5.761729667
6.0155135
6.240880083
6.3351715
6.333777083
6.205827333
5.79524375
5.69499
5.596130667
5.93314675
6.1868825
6.339739417
6.502597667
6.525389167
6.394410167
6.081387667
5.818131417
5.577666667
5.613152167
5.929829
6.28309725
6.553181333
6.48043125
6.411816333
6.308341
6.06614525
5.6133445
5.677728083
5.78154
6.020466083
6.30473475
6.371185917
6.13538525
5.98565375
5.60281425
5.690566333
5.809236
5.951658833
6.156638083
6.090860083
5.903046583
5.600313917
5.442648667
5.63945375
5.770384667
5.909874417
6.085955583
6.071819083
5.940311167
5.847558417
5.314939333
5.339173333
5.61983575
5.833277667
6.062587083
6.139328083
5.991952667
5.68532525
5.2694525
5.314121917
5.4327435
5.75687325
6.147406083
6.180247
5.83217175
5.63628025
5.560164333
5.46635375
5.56848275
5.626423167
5.674795
5.845923583
5.994212583
5.92102975
5.793705083
5.666188083
5.414808417
5.307630667
5.332826333
5.556702333
5.822507
5.973873333
6.02690925
6.016330917
5.934829667
5.399950667
5.39538275
5.4356285
5.639021
6.027390083
6.186401667
6.052633833
5.9191545
5.578195583
5.453178917
5.496309667
5.6947015
6.203278917
6.330315083
6.141491833
5.904056333
5.712059583
5.476643583
5.512465667
5.741919333
5.669602
5.845683167
6.028832583
6.201019
6.234292667
5.962958417
5.879389583
5.81774675
5.847846917
6.004454333
6.360222917
6.898948583
7.305877833
7.343238583
7.132633583
7.09378225
6.924625083
6.649251833
6.54938275
6.65035775
6.519042167
6.523513917
6.65295425
6.615208833
6.362050083
6.2509295
6.233667583
6.1251435
5.890641083
5.806399083
5.890400667
6.248333
6.44985025
6.449080917
6.46629475
6.028976833
5.817073583
5.66541875
5.724080417
6.0195525
6.168081917
6.248284917
6.123652917
5.66051425
5.487654667
5.442937167
5.420241833
6.045469417
6.250256333
6.231071083
6.123749083
5.76610525
5.694413
5.53645925
5.703837333
6.200634333
6.480671667
6.581935167
6.49370225
6.103986833
5.9716615
6.070136167
6.21818475
6.28425125
6.232802083
6.4228755
6.755516
6.48793225
6.08316675
6.043449917
5.935214333
5.934493083
6.38984225
6.578857833
6.604005417
6.21529975
6.177169667
6.162167667
6.038305
6.0409015
6.16683175
6.397727917
6.499376083
6.58227175
6.578905917
6.458745667
6.262084833
5.867561083
5.816833167
6.043834583
6.250977583
6.463025083
6.663724917
6.236600667
6.179093
6.032006083
5.826738333
6.101726917
6.323871917
6.495769833
6.562894167
6.45446625
6.204817583
5.907999167
5.815102167
5.885063417
6.10278475
6.438646833
6.513127917
6.574001417
6.077204417
5.747881667
5.73840925
5.95564975
6.111776333
6.383879917
6.56900075
6.524619833
6.258238167
6.188998167
6.168755083
6.097399417
5.986326917
6.049796917
6.0622505
6.287809417
6.609919667
6.629345333
6.495337083
6.266027667
6.0345545
5.942186417
5.860204333
5.985846083
6.243668917
6.317332583
6.410854667
6.664253833
6.58804175
6.298147333
6.03931475
5.86332975
5.92189525
5.883284333
5.938580167
6.29319475
6.345605583
6.282616417
6.252949
6.28944425
6.175582917
6.041767
6.09932275
6.364261917
6.463505917
6.439704667
6.489711333
6.3640215
6.107929667
6.005752583
5.929300083
6.130576917
6.205586917
6.327910917
6.387870833
6.242322583
6.174284667
5.868041917
5.957476917
6.073453917
6.08085875
6.263383083
6.489278583
6.314928417
5.992385417
5.923866667
5.875542917
6.22972475
6.358732333
6.588859167
6.3824855
6.189430917
6.200442
6.0824455
5.943869333
5.82870975
5.998972833
6.1395685
6.355318417
6.577223
6.441579917
6.203423167
6.2163095
6.160100083
5.974642667
5.84977025
6.257805417
6.443455167
6.465236917
6.56525025
6.627518167
6.605976833
6.258238167
6.164668
6.214963167
6.284155083
6.476055667
6.66016675
6.612660417
6.727243
6.7656135
6.60275525
6.477450083
6.318727
6.404123
6.592032667
6.672908833
7.014204333
7.037861333
6.752871417
6.5803965
6.436098417
6.473122583
6.479229167
6.527552917
6.768258083
6.921307333
7.023484417
6.96251475
6.719693917
6.412441417
6.395996917
6.436819667
6.400084
6.51476275
6.80730175
6.7079135
6.587368583
6.440425917
6.091340917
6.322766
6.352000667
6.314495667
6.566885083
6.674832167
6.56005725
6.4453785
6.310985583
6.112738
6.240255
6.22885925
6.357914917
6.29607975
6.56207675
6.605736417
6.346038333
6.211212667
6.022966417
5.83447975
5.962621833
6.050037333
6.200970917
6.305359833
6.49802975
6.458938
6.380081333
5.839432333
5.743409917
5.7593255
5.953582167
6.173082583
6.435521417
6.445763167
6.404892333
6.319496333
5.884630667
5.780866833
5.805389333
6.096774333
6.226935917
6.469275917
6.342720583
6.182314583
5.87573525
5.630894917
5.632193167
5.895545583
6.383447167
6.35954975
6.1793815
6.079656667
5.91958725
5.683930833
5.6202685
5.734562583
6.02402425
6.194143083
6.205875417
6.407200333
6.273480583
6.125383917
5.92333775
5.749420333
5.792599167
5.730427417
5.729033
5.8960745
6.169332083
6.250737167
6.285886083
6.229484333
5.97526775
5.829382917
5.728552167
5.740524917
5.957909667
6.058884667
6.028255583
6.128365083
6.191161917
5.814092417
5.641136667
5.530496917
5.456304333
5.728263667
6.15413775
6.442974333
6.686227917
6.93308775
6.768450417
6.57419375
6.488268833
6.348827167
6.461053667
6.645789833
6.65295425
6.384745417
5.966660833
5.575166333
5.477557167
5.653830667
5.706193417
6.08951375
6.3726765
6.21645375
5.746823833
5.490972417
5.235698
5.184441167
5.540113583
5.908864667
6.09384125
6.136346917
5.486212167
5.386102667
5.382736833
5.524582667
5.628058
5.880543583
6.135577583
6.105285083
5.912038167
5.679362917
5.540546333
5.520110917
5.505253167
5.742832917
5.770192333
5.891747
6.061336917
6.063596833
6.0322465
5.74619875
5.559635417
5.371293
5.616181417
5.834816333
6.044892417
6.329497667
6.004646667
5.758700417
5.5683385
5.521938083
5.559779667
5.831690917
6.026236083
6.15673425
6.068886
5.90573925
5.694461083
5.405672583
5.704799
5.90545075
6.0564805
6.114565167
6.278288917
6.279683333
5.903383167
5.532179833
5.317680083
5.36047425
5.51943775
5.719752917
6.011763
6.174957833
6.178612167
5.995991667
5.653542167
5.45596775
5.242045
5.61695075
5.952716667
6.05575925
6.119758167
6.136346917
5.961035083
5.870349917
5.585311917
5.396296333
5.302053
5.535401417
5.8372205
5.946465833
6.061288833
6.107737333
6.021523917
5.841644167
5.636376417
5.389805083
5.326479333
5.37057175
5.715858167
6.156830417
6.24876575
6.130384583
6.086244083
5.873283
5.62445175
5.578964917
5.615700583
5.719897167
5.895305167
6.271797667
6.054701417
5.837124333
5.785002
5.567713417
5.5983425
5.875110167
6.000030667
6.1713035
6.098313
5.852462917
5.70869375
5.431685667
5.525688583
5.793753167
6.071097833
6.235158167
6.114661333
5.8747255
5.506070583
5.377014917
5.625173
5.930069417
6.174284667
6.174284667
6.136779667
6.126201333
5.824141833
5.4263965
5.49347275
5.720906917
5.961660167
6.2428515
6.231840417
6.117113583
5.920068083
5.636713
5.496982833
5.347732167
5.489962667
5.911893917
6.061336917
6.16856275
6.207173667
6.091581333
5.891410417
5.243150917
5.243247083
5.483423333
5.831835167
6.059654
6.1857285
6.23607175
5.91150925
5.518428
5.432118417
5.614161917
5.889679417
6.031044417
6.126682167
6.250544833
6.157503583
5.930454083
5.427069667
5.531699
5.610555667
5.8718405
6.275548167
6.21010675
6.004839
5.9006905
5.951129917
5.861262167
5.671573417
5.72427275
6.019937167
6.546161167
6.64545325
6.625065917
6.350702417
6.040516833
5.821160667
5.7950995
5.87833175
6.33820075
6.5492385
6.5440455
6.615208833
6.761670667
6.532842083
5.96199675
5.915163583
6.138943417
6.291415667
6.596264
6.85057675
6.8458165
6.586839667
6.319977167
6.059654
5.881168667
5.878956833
5.958198167
6.5001935
6.77066225
6.865146
6.571116417
6.053210833
5.789377583
5.71215575
5.8920355
6.354404833
6.642664417
6.807782583
6.58457975
5.851885917
5.556269583
5.488904833
5.8302965
6.373493917
6.609919667
6.608332917
6.395227583
5.71532925
5.513860083
5.478855417
5.597428917
5.828517417
6.119854333
6.28078925
6.270307083
6.22453175
5.733023917
5.49780025
5.36768675
5.550980417
6.030563583
6.25684375
6.232705917
6.275259667
6.078743083
5.802696667
5.595072833
5.510830833
5.675323917
5.851885917
6.119710083
6.350846667
6.405469333
6.3213235
6.03469875
5.669698167
5.4933285
5.441879333
5.38672775
5.549970667
5.887611833
6.128317
6.2457365
5.87198475
5.559972
5.328018
5.302581917
5.426588833
5.560885583
5.824622667
6.031381
6.165052667
5.766153333
5.58146525
5.334124583
5.171025917
5.671669583
5.815006
5.941946
5.97526775
5.898911417
5.606709
5.416827917
5.328787333
5.356771833
5.547037583
5.807120333
5.98248025
6.119421583
5.769807667
5.349174667
5.193336583
5.104911333
5.756825167
5.956851833
6.011378333
6.296320167
6.286799667
6.151925917
6.045277083
6.109660667
6.087301917
6.326708833
6.483508583
6.689545667
6.808792333
6.076915917
5.6606585
5.398508167
5.303303167
5.373649083
5.731341
6.001040417
6.16827425
6.248717667
6.008349083
5.660754667
5.40317225
5.04485525
4.89800875
5.07428225
5.430964417
5.66614
5.756969417
5.671573417
5.519918583
5.237813667
5.044230167
4.998310583
5.23007225
5.537084333
5.648878083
5.620749333
5.48395225
5.297437
4.941043333
4.807612083
4.975567167
5.264307583
5.521072583
5.41471225
5.1125085
4.829153417
4.554357167
4.6128265
4.907048417
5.190740083
5.213291167
5.20814625
5.106401917
4.800736167
4.554741833
4.304804667
4.242488667
4.27138675
4.58671725
4.90493275
5.102314833
5.047547917
4.838962417
4.633983167
4.361206417
3.92345575
3.813441083
4.034432083
4.393903083
4.536854833
4.69490475
4.759144083
4.605037
4.300717583
3.925908
3.828058417
3.680683
3.678326917
4.02169
4.331490917
4.71134925
4.513294
4.0894875
3.686404917
3.581390917
3.759539667
3.936967167
4.135166667
4.351926333
4.415877167
4.076456917
3.6088465
3.25442425
3.161046417
3.3503505
3.696742833
3.918743583
4.150024417
3.94797825
3.608606083
3.298228167
2.964962583
3.028673
3.419061583
3.619424833
4.074197
3.94711275
3.519026833
3.153256917
2.914763583
3.209514417
3.45579725
3.764251833
3.871189167
4.034047417
3.9371595
3.495129417
3.118108
2.865478167
2.93505475
3.251972
3.692319167
3.9319665
3.991782167
3.819932333
3.486234
2.981166667
2.856101917
2.924861083
2.971213417
3.193935417
3.473203417
3.842002583
3.959470167
3.7155915
3.41771525
2.877018167
2.852639917
3.077477583
3.43848725
3.957402583
3.98779125
3.800458583
3.434640583
3.1380145
3.027182417
3.086613417
3.148689
3.216149917
3.882873417
4.068763583
3.793582667
3.35280275
2.946065833
2.742432917
2.941353667
3.234085
3.51003525
3.8177205
3.9521615
3.923023
3.677701833
3.300632333
2.997466917
2.805710583
2.894760917
3.2020615
3.6215405
3.88883575
4.20330075
3.934226417
3.465990917
3.31875975
3.10382725
3.01194
3.118877333
3.341984
3.60379775
3.839983083
4.108480417
4.044962333
3.692463417
3.262694583
2.894568583
2.919523833
3.210187583
3.5574935
3.879363333
4.107855333
4.0756395
4.052367167
3.867631
3.53455775
3.26582
3.155228333
3.296737583
3.75958775
4.180268833
4.352647583
4.163824333
3.72352525
3.548790417
3.443536
3.529749417
4.08241925
4.377699
4.56306025
4.3820265
3.651881083
3.342224417
3.25875175
3.481618
4.030537333
4.30196775
4.370726917
4.184932917
3.574418833
3.3538125
3.231728917
3.36665075
3.825317667
4.105691583
4.210465167
4.13694575
3.641110417
3.273224833
3.225958917
3.297170333
3.893836417
4.081938417
4.162814583
3.95288275
3.306787
3.06387
3.04583875
3.101375
3.803776333
3.9850505
3.974376
3.868400333
3.59110375
3.167778083
2.854611333
2.762435583
2.972078917
3.371074417
3.69842575
3.849503583
3.988224
3.671691417
3.260723167
2.922697333
2.707524417
2.87648925
3.302219083
3.6319265
3.90758825
3.963316833
3.593459833
3.23769125
2.983282333
2.881922667
2.972607833
3.16037325
3.561003583
3.805218833
3.8021415
3.8540715
3.734440167
3.350975583
2.965539583
2.674587333
2.73974025
3.105317833
3.474790167
3.683808417
3.862486083
3.704917
3.4622885
3.222208417
2.82023175
2.745702583
3.010449417
3.345446
3.573457167
3.796323417
3.846810917
3.667460083
3.459018833
3.067572417
2.798930833
2.714688833
3.214659333
3.63149375
3.81209475
3.849359333
3.378719667
3.069832333
2.925967
2.856198083
3.074159833
3.275580917
3.4438245
3.69756025
3.81151775
3.552012
3.326501167
3.139408917
2.9222165
3.254664667
3.725689
4.167142083
4.544692417
4.793042833
4.46266225
4.044721917
3.790313
3.455604917
3.702224333
3.938409667
4.086410167
4.104970333
3.9238885
3.70679225
3.327030083
2.976646833
2.934622
3.127868917
3.380017917
3.722419333
3.717707167
3.711360167
3.223362417
2.788160167
2.85225525
3.194368167
3.570572167
3.83430925
3.86344775
3.673759
3.397135583
3.06603375
2.778928167
2.885961667
3.212784083
3.5534545
3.853446417
3.704724667
3.411224
3.155036
2.878893417
2.709495833
3.001746333
3.281302833
3.484743417
3.640293
3.86575575
3.842194917
3.534317333
3.264185167
3.044348167
2.9660685
2.917263917
3.244663333
3.588699583
4.0133235
3.964903583
3.788678167
3.443872583
2.994966583
3.122387417
3.413195417
3.803920583
3.952065333
3.909848167
3.723765667
3.37905625
3.020018
2.864468417
3.28413975
3.587882167
3.769877583
4.215225417
4.087852667
3.753481167
3.3959335
3.02593225
3.153833917
3.375401917
3.692751917
4.0802555
3.98663725
3.720592167
3.387038083
3.112578417
3.03689525
3.230286417
3.461519167
3.730305
4.002889417
3.974856833
3.739056167
3.394587167
3.153353083
3.141572667
3.315057333
3.559176417
3.828058417
4.154351917
4.014862167
3.705397833
3.406848417
3.11623275
3.141091833
3.333809833
3.73131475
4.010775083
4.10867275
4.24311375
4.244940917
3.885421833
3.234277333
3.23249825
3.459163083
3.646063
4.172335083
4.278118417
4.154351917
3.906097667
3.32799175
3.277023417
3.317990417
3.580092667
3.923936583
4.253644
4.415300167
4.18483675
3.908117167
3.215044
3.209177833
3.490513417
3.705445917
3.960528
4.2331605
4.419483417
4.350964667
4.09165125
3.323135333
3.195522167
3.5084485
3.842339167
4.1662285
4.37466975
4.45343025
4.316537
4.026883
3.7207845
3.45320075
3.388192083
3.550761833
3.79305375
4.170075167
4.453911083
4.516756
4.278262667
4.00163925
3.689338
3.568216083
3.422379333
3.550232917
3.835799833
4.16464175
4.471557667
4.562916
4.476750667
4.20358925
3.798968
3.62889725
3.465798583
3.656641333
4.305093167
4.586621083
4.717503917
4.68971175
3.87902675
3.584324
3.549175083
3.771800917
4.50507175
4.776454083
4.811651083
4.640330167
4.154351917
3.935091917
3.83748275
3.932783917
4.131127667
4.401692583
4.771213
4.97676925
4.8667065
4.450929917
4.1794995
3.879267167
3.97827075
4.785253333
5.11265275
5.271664333
5.19920275
4.706829417
4.450593333
4.31235375
4.434437333
5.173910917
5.379130583
5.397738833
5.451592167
5.368215667
5.0865435
4.906808
4.812276167
5.036007917
5.418414667
5.664168583
5.966228083
6.272663167
6.18818075
6.073117333
5.940743917
5.726099917
5.721147333
5.987336667
6.215251667
6.4096045
6.701518417
6.895534667
6.50062625
6.296801
6.1257205
5.94901425
6.191258083
6.420663667
6.724406083
6.868223333
6.500385833
6.15327225
5.9381955
5.92679975
6.189719417
6.457303167
6.767392583
6.902458667
6.632518833
6.1568785
5.924299417
5.923530083
6.046575333
6.1211045
6.408162
6.694354
6.7563815
6.750226833
6.46542925
5.98825025
5.682824917
5.59589025
5.802889
6.224099
6.453648833
6.57534775
6.645549417
6.424318
6.101101833
5.699077083
5.650176333
5.66080275
5.675756667
5.953966833
6.234388833
6.423356333
6.474565083
6.340460667
6.117113583
5.943869333
5.6081515
5.5239095
5.659744917
5.859242667
6.066626083
6.154282
6.342912917
6.45965925
6.298435833
5.952909
5.6052665
5.490828167
5.703164167
6.021091167
6.329641917
6.323150667
6.09903425
5.985317167
5.690374
5.494290167
5.742496333
6.085811333
6.263527333
6.210347167
5.902950417
5.692778167
5.663062667
5.541508
5.612671333
5.961804417
6.320986917
6.248381083
5.882851583
5.61320025
5.403797333
5.471306333
5.692441583
5.95622675
6.209481667
6.177698583
5.928146083
5.666332333
5.33566325
5.38153475
5.679939917
6.057249833
6.276942583
6.275259667
6.142693917
5.980412667
5.71475225
5.559587333
5.437744167
5.565934333
5.8060625
6.100236333
6.332478833
6.141251417
5.97526775
5.880110833
5.98882725
6.257757333
6.518946
6.88173475
7.182015167
6.990932
6.865626833
6.541785583
5.6121905
5.724465083
6.022726
6.116728917
6.401718833
6.184093667
5.97786425
5.83649925
5.541556083
5.345856917
5.36220525
5.488039333
5.784953917
6.110381917
6.206308167
6.139664667
5.826930667
5.517033583
5.25776825
5.245843583
5.473470083
5.612719417
5.743986917
6.08316675
6.051191333
5.89016025
5.659552583
5.179536667
5.291715083
5.626567417
5.729273417
6.033160083
6.208327667
6.136058417
5.839432333
5.49260725
5.190740083
5.170593167
5.53963275
5.952380083
6.190152167
6.14836775
5.934396917
5.690133583
5.515206417
5.307342167
5.327537167
5.612959833
5.877802833
6.18644975
6.245496083
6.210154833
6.077781417
5.281809917
5.169583417
5.448995667
5.601323667
6.150579583
6.343730333
6.173851917
6.021668167
5.5660305
5.3779285
5.465584417
5.637963167
5.86996525
6.14548275
6.209337417
6.053403167
5.861262167
5.199875917
5.094284917
5.267817667
5.4875585
5.98161475
6.238524
6.290550167
5.841019083
5.298206333
5.255123667
5.263922917
5.413173583
6.153897333
6.210154833
6.057923
5.772259917
5.20122225
5.181123417
5.3542715
5.469767667
5.769423
6.022726
6.169861
6.037968417
5.855155583
5.671717667
5.475056833
5.268106167
5.2642595
5.502223917
5.738649667
5.8833805
6.208471917
6.171976667
5.880447417
5.514485167
5.092073083
4.960949833
5.219349667
5.9958955
6.16163875
6.221887167
5.931079167
5.549393667
5.20699225
5.047115167
5.252623333
5.921702917
6.186065083
6.22280075
5.944061667
5.744948583
5.483327167
5.259932
5.161168833
5.22401375
5.784040333
6.071530583
6.261844417
6.134664
5.563193583
5.370187083
5.281761833
5.287002917
5.796734333
5.975989
6.023062583
5.982528333
5.509676833
5.394373
5.338500167
5.272000917
5.406730417
5.726917333
6.071963333
6.074656
5.93891675
5.692008833
5.312390917
5.1967505
5.178815417
5.23728475
5.39163225
5.63628025
6.026813083
6.236167917
6.118892667
5.781011083
5.40057575
5.158043417
5.235361417
5.25647
5.51943775
5.702827583
5.934060333
6.124662667
5.6721985
5.366292333
5.239785083
5.12765475
5.2307935
5.68445975
5.906123917
5.987625167
5.974450333
5.70350075
5.314073833
5.14409925
5.09361175
5.29844675
5.631856583
5.931319583
6.014648
5.746727667
5.318786
4.99119425
4.929070583
5.27132775
5.537565167
5.689748917
5.848135417
5.737111
5.646329667
5.389564667
5.029805167
4.85834
5.088755333
5.369562
5.58002275
5.70378925
5.828661667
5.867897667
5.636136
5.193961667
4.90031675
4.778473583
4.9295995
5.145734083
5.469719583
5.733552833
5.852126333
5.548047333
5.091351833
4.767366333
4.706108167
4.886372583
5.172756917
5.287291417
5.513860083
5.639261417
5.616037167
5.377832333
4.946524833
4.858436167
4.656630417
4.499061333
4.922050417
5.379467167
5.475826167
5.333884167
4.995666
4.6768735
4.474106083
4.333462333
4.576764
5.02581425
5.243006667
5.197279417
4.834586833
4.45400725
4.176999167
4.132714417
4.2989385
4.518823583
4.707166
4.862475167
5.131068667
4.73327525
4.408472333
4.196569083
4.063474417
4.066936417
4.30600675
4.657495917
4.750921833
4.9578725
4.528776833
4.021113
3.929321917
3.9411985
4.281532333
4.528536417
4.606816083
4.631002
4.39053725
4.091314667
3.908069083
3.769156333
3.815604833
4.054482833
4.36399525
4.7414975
4.914549417
4.749335083
4.447275583
4.202194833
3.863543917
3.49416775
3.5222965
3.894221083
4.440928583
4.591381333
4.626770667
4.571378667
4.30341025
4.058858417
3.549175083
3.583218083
3.847436
4.218543167
4.424339833
4.5932085
4.562675583
4.313603917
3.937928833
3.751702083
3.68169275
3.73333425
3.855994833
4.053617333
4.520025667
4.328750167
4.109345917
3.671547167
3.453729667
3.495273667
3.554848917
3.758962667
4.035730333
4.277493333
4.286773417
4.187096667
3.93384175
3.64303375
3.301834417
3.448825167
3.683327583
4.022459333
4.216619833
4.5372395
4.379622333
3.916916417
3.484166417
3.411993333
3.391606
3.493109917
3.875324333
4.334760583
4.73385225
5.046393917
5.037161917
4.885699417
4.62393375
4.31466175
4.273310083
4.45429575
4.70990675
4.959555417
4.907192667
4.8961335
4.71971575
4.303843
3.53946225
3.358765083
3.621203917
3.825990833
4.399576917
4.556905583
4.419146833
3.906818917
3.593556
3.317221083
3.252164333
3.41627275
3.65861275
4.112471333
4.3537535
4.273935167
4.020584083
3.336454417
3.26481025
3.33174225
3.529893667
4.25811575
4.382651583
4.299563583
4.116077583
3.525566167
3.296978
3.55763775
3.826760167
4.328317417
4.398711417
4.335818417
4.10290275
3.6567375
3.44627675
3.436083083
3.493206083
3.758962667
4.445592667
4.693269917
4.4858865
4.250855167
3.59802775
3.528018417
3.653179333
3.890518667
4.2781665
4.536470167
4.642157333
4.594025917
4.3664475
4.045875917
3.698473833
3.611346833
3.893211333
4.519064
4.710147167
4.853675917
4.747507917
4.328317417
3.887633667
3.804834167
3.914031417
4.499638333
4.721350583
4.901615
4.835885083
4.611287833
4.337886
4.154303833
4.0283255
4.030873917
4.351349333
4.607585417
4.89829725
5.202760917
5.0726955
4.800736167
4.3012465
4.036499667
4.0941035
4.205272167
4.392220167
4.664996917
4.9948005
5.136790583
5.073224417
4.870553167
4.622395083
4.389142833
4.336924333
4.434870083
4.7126475
4.974365083
5.218291833
5.420674583
5.245843583
5.194346333
5.09967025
4.875024917
4.888247833
4.970806917
5.1759785
5.608343833
5.918625583
6.120767917
6.11778675
5.953582167
5.6704675
5.544921917
5.435532333
5.54742225
5.752497667
6.044748167
6.272759333
6.262854167
6.007627833
5.718839333
5.502800917
5.301235583
5.741101917
6.070665083
6.232225083
6.296320167
6.012724667
5.718262333
5.552855667
5.614402333
5.79841725
6.05316275
6.250977583
6.302474833
5.974306083
5.675708583
5.4575545
5.38211175
5.543864083
5.873090667
6.19625875
6.291944583
6.3617135
6.088888667
5.734418333
5.557904417
5.499867833
5.577762833
5.834720167
6.084657333
6.25468
6.402969
5.918673667
5.720041417
5.54540275
5.427069667
5.482028917
5.71273275
6.11043
6.464131
6.537217667
6.349067583
6.039795583
5.731725667
5.553673083
5.518331833
5.581272917
5.78254975
6.089081
6.372580333
6.395275667
6.30819675
6.135241
5.82351675
5.65907175
5.672967833
5.866455167
6.052778083
6.173130667
6.253189417
6.273672917
6.134664
5.802696667
5.590312583
5.714656083
5.789137167
5.873619583
6.117113583
6.344066917
6.520869333
6.545103333
6.25078525
5.958871333
5.782068917
5.59444775
5.7829825
6.17404425
6.44321475
6.579531
6.587512833
6.65555075
6.353298917
6.1603405
5.947523667
5.967093583
6.261075083
6.711567833
6.7973485
6.700508667
6.71094275
6.589147667
6.36935875
6.198614833
6.000751917
5.893814583
6.083311
6.56582725
6.855144667
6.863751583
6.7852315
6.370608917
6.1343755
5.914442333
6.160821333
6.461726833
6.843893167
6.822640333
6.58688775
6.44754225
6.350990917
6.081676167
5.8187565
5.86506075
6.084513083
6.296224
6.695027167
6.63449025
6.40138225
5.938532083
5.78053025
5.778462667
5.881938
6.186209333
6.811581167
6.662570917
6.4159515
6.052922333
5.840345917
5.708886083
5.650224417
5.940888167
6.214674667
6.388736333
6.310264333
6.275259667
5.922568417
5.627817583
5.625173
5.744035
6.093889333
6.637567583
6.684448833
6.219867667
5.806831833
5.448130167
5.513763917
5.712203833
5.998251583
6.363973417
6.438550667
6.48764375
6.382389333
5.948389167
5.66714975
5.624355583
5.618633667
5.725955667
6.160725167
6.363107917
6.456293417
6.296127833
6.079849
5.76697075
5.601612167
5.417501083
5.491501333
5.716579417
6.066049083
6.3594055
6.422635083
6.216838417
6.070665083
5.819141167
5.528910167
5.437648
5.626375083
5.856021083
6.2376585
6.423115917
6.31714025
6.09528375
5.64753175
5.46664225
5.532179833
5.786733
6.246409667
6.455860667
6.3103605
5.995558917
5.735860833
5.495732667
5.366003833
5.55751975
5.788127417
6.374167083
6.958043
7.067480667
7.03117775
6.90019875
6.42186575
6.27444225
6.423356333
6.531688083
6.759939667
6.884235083
6.748592
6.4488405
6.260257667
5.76581675
5.52520775
5.621326333
5.840874833
6.0818685
6.327189667
6.40830625
6.236841083
5.840394
5.634068417
5.499867833
5.290272583
5.252671417
5.587187167
5.98651925
6.200057333
6.305071333
6.218954083
5.99113525
5.568434667
5.526506
5.37201425
5.453130833
5.976469833
6.183180083
6.186353583
6.216501833
5.579013
5.439859833
5.327825667
5.361291667
5.93833975
6.112401417
6.186545917
6.025995667
5.6814305
5.50847475
5.33335525
5.33970225
5.887900333
6.133029167
6.289925083
6.236889167
6.07047275
5.849000917
5.573291083
5.393315167
5.38759325
5.637674667
5.839191917
6.108025833
6.38580325
6.317573
6.022774083
5.655225083
5.446399167
5.35989725
5.248440083
5.498233
5.977383417
6.195200917
6.163754417
5.919443
5.783607583
5.60310275
5.328114167
5.24536275
5.225360083
5.492943833
5.792887667
5.8931895
5.896843833
5.879678083
5.692056917
5.520639833
5.322728833
5.015957167
4.9676815
5.216464667
5.50414725
5.720858833
5.785530917
5.5366035
5.428416
5.024612167
4.742122583
4.904836583
5.363792
5.697346083
5.74215975
5.5233325
5.171170167
4.888680583
4.697357
4.665573917
4.7928505
5.2371405
5.401104667
5.499915917
5.15419675
4.87406325
4.602729
4.26446275
4.563444917
4.934263583
5.192759583
5.303207
5.18564325
4.718369417
4.3104785
4.23849775
4.47997225
4.858580417
5.048846167
5.190066917
4.954747083
4.448621917
4.277204833
4.208541833
4.409434
4.737843167
4.98571275
5.286425917
4.845694083
4.584745833
4.266241833
4.138580583
4.238738167
4.456555667
4.704232917
4.808381417
5.115778167
5.208050083
4.895893083
4.582293583
4.289177583
4.2348915
4.44564075
4.648552417
4.899403167
5.039758417
4.7991975
4.457517333
4.147716417
4.223303417
4.483963167
4.721831417
4.83771225
5.056635667
5.066156167
4.842953333
4.438764833
4.122328417
4.00596675
4.349377917
4.868966417
4.980760167
4.970326083
4.753710667
4.536470167
4.29446675
4.031402833
4.055973417
4.27167525
4.558973167
4.856560917
5.235938417
4.86944725
4.447419833
4.210176667
4.0439045
4.071360083
4.307112667
4.780396917
5.049711667
5.096160167
4.972537917
4.77683875
4.631338583
4.458815583
4.195463167
4.476029417
4.815257333
5.249209417
5.499483167
5.342058333
5.0080715
4.719523417
4.439774583
4.272588833
4.426695917
4.521708583
4.92916675
5.313064083
5.48827975
5.5014065
5.376437917
5.005090333
4.507283583
4.453670667
4.864158083
5.362109083
5.648878083
5.534343583
5.441446583
5.049230833
4.530363583
4.629174833
4.791215667
5.077792333
5.666188083
5.588581583
5.2100215
4.971480083
4.520458417
4.512668917
4.726543583
5.080244583
5.664409
5.460776083
5.08034075
4.804679
4.475308167
4.37380425
4.525026333
4.87377475
5.564011
5.497463667
5.158283833
4.707694917
4.320335583
4.249364583
4.234699167
4.464777917
4.929791833
5.225071583
5.401297
5.283348583
5.08091775
4.752749
4.297496
4.05097275
4.28148425
4.600805667
4.92195425
5.305563083
5.40072
5.111402583
4.791408
4.407126
4.124203667
4.36428375
4.545365583
5.148907583
5.391968833
5.340086917
5.0426915
4.30542975
4.156708
4.188346833
4.390729583
4.755297417
5.142704833
5.329220083
5.269500583
5.035671333
4.242296333
4.077178167
4.155505917
4.4397265
4.75981725
5.057982
5.204636167
5.280463583
5.114576083
4.26532825
4.092132083
4.133291417
4.33947275
4.722841167
5.045816917
5.162178583
5.069473917
4.806313833
4.29735175
4.131945083
4.086314
4.371400083
4.764240917
5.062021
5.235746083
5.117076417
4.883631833
4.283263333
3.993224667
3.97452025
4.102806583
4.529834667
5.01600525
5.21074275
5.146888083
4.898970417
4.578831583
4.3324045
4.390296833
4.90175925
5.154581417
5.487654667
5.859483083
5.999982583
5.95074525
5.331239583
5.056202917
4.6497545
4.527093917
4.969893333
5.295369417
5.393219
5.281521417
4.591525583
4.304612333
4.098334833
4.068523167
4.75924025
5.0294205
5.186653
5.16515975
4.746209667
4.31119975
4.053040333
3.97711675
4.134733917
4.643647917
5.025718083
5.176459333
5.092986667
4.850790917
4.448333417
4.094488167
3.888162583
4.015727667
4.612586083
4.866898833
5.016918833
5.021534833
4.753133667
4.390585333
4.20618575
4.09078575
4.08703525
4.330769667
4.663073583
4.875553833
5.046345833
5.036440667
4.791936917
4.52180475
4.312401833
4.18916425
4.108432333
4.280522583
4.722216083
5.02235225
5.164919333
4.961526833
4.62047175
4.33745325
4.135022417
4.26475125
4.709954833
4.9613345
5.224831167
4.951765917
4.603546417
4.352407167
4.232343083
4.33658775
4.624703083
4.830403583
5.18968225
5.0380755
4.3641395
3.9238885
4.055156
4.284128833
4.624414583
4.973836167
5.18968225
4.987491833
4.657736333
4.196184417
3.942977583
4.315767667
4.685047667
5.027881833
5.156120083
4.967296833
4.700193917
4.427801833
4.112038583
4.351205083
4.636772
4.899210833
5.114720333
5.101064667
4.834634917
4.43467775
4.215658167
4.120453167
4.052271
4.2729735
4.737362333
5.049807833
5.289743667
5.227091083
4.831605667
4.475596667
4.164209
3.808680833
4.504446667
5.0426915
5.339942667
5.161072667
4.882766333
4.508485667
4.335674167
4.139638417
4.306535667
4.753662583
4.909596833
5.126404583
5.286714417
4.943110917
4.671440083
4.55729025
4.158054333
4.311440167
4.6878365
5.003070833
5.030526417
5.035479
4.978692583
4.70932975
4.30629525
4.16175675
4.151707333
4.352214833
4.743036167
5.035382833
5.106113417
5.082023667
4.9232525
4.573205833
4.27196375
4.161997167
4.192530083
4.257346417
4.797418417
5.094333
5.177036333
5.142801
5.013360667
4.60777775
4.235083833
4.054338583
4.19868475
4.470115167
4.725293417
4.994704333
5.236900083
5.087409
4.883247167
4.58700575
4.286148333
4.111509667
4.176374083
4.36053325
4.767991417
5.096015917
5.06908925
4.971768583
4.764817917
4.279368583
4.210849833
4.41938725
4.981721833
5.314939333
5.224831167
5.001243667
4.763231167
4.328605917
4.4951185
4.713176417
4.955612583
5.299696917
5.477461
5.4050475
5.335711333
5.072503167
4.543778833
4.661006
4.975230583
5.311525417
5.486452583
5.7910605
5.773654333
5.519389667
5.3456165
4.806794667
4.734910083
4.950852333
5.213964333
5.808178167
5.924299417
5.64810875
5.205213167
4.736641083
4.74250725
4.867956667
5.22762
5.682199833
5.584734917
5.306669
5.036440667
4.95628575
4.6737
4.663794833
4.935898417
5.536218833
5.78889675
5.586994833
5.361724417
4.627155333
4.640618667
4.644801917
4.83107675
5.299408417
5.522995917
5.561222167
5.348020667
4.585370917
4.374285083
4.3174025
4.55152025
5.345231833
5.52636175
5.35008825
5.0669255
4.724524083
4.4489585
4.441265167
4.591237083
4.79270625
5.208579
5.333451417
5.2648365
5.081975583
4.827278167
4.57561
4.384382583
4.471701917
4.687355667
4.944120667
5.186989583
5.305755417
5.252046333
5.134194083
4.904115333
4.477279583
4.193251333
4.250566667
4.66216
5.0900055
5.294503917
5.407259333
5.40548025
5.2279085
4.743180417
4.353657333
4.14704325
4.250230083
4.689230917
4.99523325
5.147753583
5.448851417
5.303014667
5.068993083
4.664419917
4.36212
4.360869833
4.378276
4.860167167
5.175641917
5.28257925
5.236323083
4.8124685
4.53853775
4.282157417
4.276195083
4.935658
5.313352583
5.490106917
5.43404175
4.727889917
4.360437083
4.174498833
4.215610083
4.907769667
5.250123
5.5392
5.626230833
5.42019375
5.43346475
5.386631583
5.367254
5.705279833
5.9808935
6.13625075
5.95882325
5.302004917
4.9082505
4.742555333
4.795206583
5.175593833
5.4696715
5.592043583
5.481403833
5.239929333
4.85819575
4.483818917
4.340434417
4.31596
4.45285325
4.780396917
5.134771083
5.414904583
5.415048833
5.17323775
4.882814417
4.549837333
4.355147917
4.42775375
4.6422535
4.9999935
5.267481083
5.392401583
5.156841333
4.707743
4.62220275
4.41534825
4.523487667
5.061395917
5.319699583
5.395863583
5.260124333
4.772559333
4.4426115
4.305525917
4.274656417
4.573638583
4.935081
5.326238917
5.523140167
5.019226833
4.996002583
4.954650917
4.536181667
4.437658917
4.800447667
5.223581
5.375860917
5.392978583
5.418655083
5.125731417
4.7489985
4.474442667
4.417560083
4.730582583
5.146359167
5.346674333
5.579205333
5.23339
4.905894417
4.692164
4.529978917
4.616625083
4.743709333
5.045047583
5.32989325
5.569204
5.438609667
5.176459333
4.849636917
4.525603333
4.402558083
4.517092583
4.68769225
4.8845935
5.17035275
5.569684833
5.604881833
5.318449417
4.92657025
4.56479125
4.500023
4.745632667
5.1177015
5.353406
5.518428
5.269741
4.843866917
4.59133325
4.564839333
4.611143583
5.064809833
5.416058583
5.41038475
5.323353917
5.102074417
4.699424583
4.585755583
4.696251083
5.135828917
5.4419755
5.567088333
5.332585917
4.961623
4.623164417
4.58902525
4.729043917
4.990809583
5.436830583
5.502945167
5.24305475
4.995666
4.703367417
4.621096833
4.620712167
4.780252667
5.099526
5.363984333
5.546460583
5.5273715
5.360522333
4.944553417
4.682883917
4.46410475
4.511226417
4.693846917
5.047259417
5.383650417
5.525400083
5.570165667
5.404518583
4.965710083
4.6307135
4.474442667
4.562339
4.824489333
5.084283583
5.59185125
5.526409833
5.1696315
4.917145917
4.511322583
4.581187667
4.84780975
5.123808083
5.553528833
5.551990167
5.28661825
4.926233667
4.476125583
4.521997083
4.845646
5.24420875
5.49116475
5.433032
5.277338167
4.989992167
4.489685083
4.614028583
4.83973175
5.17179525
5.621759083
5.55074
5.378986333
5.065146417
4.873919
4.69894375
4.8661295
5.02408325
5.238486833
5.470344667
5.781203417
5.8522225
5.59646725
5.308736583
4.8534355
4.934552083
5.298783333
5.529775667
5.881986083
6.052681917
5.967911
5.819958583
5.511167417
5.292821
5.052163917
4.974797833
5.273683833
5.600890917
5.82409375
6.038785833
5.97901825
5.642723417
5.01744775
4.843386083
4.973643833
5.26469225
5.822122333
6.119133083
6.051479833
5.831979417
4.91474175
4.91272225
4.9238295
5.018409417
5.498761917
5.63310675
5.742784833
5.557135083
4.983164333
4.755585917
4.844684333
5.080004167
5.28575275
5.499483167
5.652917083
5.59560175
5.2994565
5.0853895
4.771020667
4.632396417
4.719186833
4.888680583
5.1436665
5.356771833
5.388266417
5.437022917
5.336913417
4.666247083
4.33947275
4.414242333
4.786166917
5.14438775
5.392065
5.592620583
5.578772583
5.25401775
4.78491675
4.591189
4.504590917
4.424676417
4.64961025
4.960469
5.33306675
5.587091
5.500589083
5.189922667
4.650523833
4.440399667
4.373996583
4.260519917
5.1517445
5.476499333
5.510590417
5.404855167
4.942678167
4.398711417
4.199790667
4.35101275
4.774482667
5.0484615
5.4004315
5.543239
4.758038167
4.58325525
4.403327417
4.421743333
4.983308583
5.381342417
5.604016333
5.431878
4.941428
4.629222917
4.380103167
4.370967333
4.8332405
5.208675167
5.41413525
5.41817425
4.750344833
4.503436917
4.258644667
4.177960833
4.411116917
4.752268167
5.180257917
5.44558175
5.527900417
5.418703167
5.280078917
5.257960583
5.520976417
5.919971917
6.100957583
6.154474333
6.229917083
5.863714417
5.32441175
4.94128375
4.562339
4.715003583
5.043653167
5.408605667
5.571415833
5.19747175
4.843578417
4.526228417
4.255326917
4.427513333
4.766837417
5.039277583
5.298062083
5.16804475
4.863340667
4.5585885
4.221235833
4.183778917
4.46121975
4.783714667
5.102411
5.489337583
5.420674583
5.041826
4.563829583
4.467807167
4.478000833
4.382315
4.425061083
4.702309583
5.057789667
5.29267675
5.30710175
5.08351425
4.786599667
4.430398333
4.204935583
4.218975917
4.544403917
4.992829083
5.14756125
5.366677
5.3981235
5.2163685
4.850262
4.587534667
4.3572155
4.442274917
4.67990275
5.016341833
5.359079833
5.5210245
5.465680583
5.23988125
4.92743575
4.711733917
4.475981333
4.339617
4.666872167
5.042403
5.284069833
5.462074333
5.426733083
5.25603725
5.013312583
4.739429917
4.457373083
4.452805167
4.663362083
5.041345167
5.264644167
5.36537875
5.24016975
4.886564917
4.565272083
4.4541515
4.588784833
4.952968
5.327921833
5.365619167
5.23007225
4.859253583
4.519400583
4.438764833
4.488483
4.677210083
4.990376833
5.324940667
5.435917
5.222427
4.859301667
4.65739975
4.451026083
4.64932175
4.953304583
5.226225583
5.3940845
5.158043417
4.868341333
4.48545375
4.35534025
4.613595833
4.874592167
5.184970083
5.366917417
5.385237167
5.2527195
4.849204167
4.557146
4.516996417
4.516996417
4.715340167
5.1419355
5.4021625
5.472796917
5.457458333
5.297340833
4.92426225
4.536374
4.41852175
4.482713
4.632829167
5.095438917
5.526986833
5.48943375
5.214445167
4.845020917
4.66057325
4.522526
4.578158417
4.837471833
5.128904917
5.417693417
5.568963583
5.448418667
5.287387583
5.049904
4.73010175
4.392075917
4.41650225
4.603642583
5.041008583
5.379996083
5.57396425
5.546652917
5.32960475
5.062982667
4.7178405
4.479635667
4.452083917
4.694423917
5.015620583
5.293398
5.439042417
5.34979975
5.199443167
4.87204375
4.528536417
4.602152
4.679950833
4.775155833
5.089524667
5.3242675
5.509532583
5.516312333
5.2423335
4.84579025
4.695818333
4.766933583
4.86165775
5.028362667
5.598631
5.630173667
5.390334
5.024275583
4.732073167
4.471076833
4.582293583
4.716878833
5.003792083
5.383217667
5.471065917
5.490635833
5.24449725
4.779627583
4.569359167
4.65711125
4.86252325
5.348261083
5.487318083
5.583965583
5.37316825
4.873101583
4.689375167
4.853916333
5.029612833
5.466690333
5.755334583
5.76235475
5.546027833
4.871130167
4.588255917
4.668555083
4.942774333
5.585263833
5.6900855
5.665947667
5.56559775
5.111883417
4.825547167
4.894114
5.210935083
5.961179333
6.136443083
6.02777475
5.874052333
5.503089417
5.16429425
4.984606833
5.128039417
5.432358833
5.749420333
5.903190833
6.05460525
6.089994583
5.852126333
5.565790083
5.326335083
4.953593083
4.871274417
5.31085225
5.790820083
5.96199675
6.038112667
6.009839667
5.819381583
5.5239095
5.222427
4.923589083
5.019130667
5.464574667
5.7189355
5.845538917
5.950697167
5.353165583
5.111450667
4.972586
4.74279575
5.428656417
5.681238167
5.893574167
5.911990083
5.188624417
4.914549417
4.750104417
4.803284583
5.0686565
5.33999075
5.532660667
5.709366917
5.716964083
5.56184725
5.19977975
4.991723167
4.804053917
4.529401917
4.852473833
5.3698505
5.713213583
5.82178575
5.661572083
5.080869667
4.80799675
4.749864
4.942389667
5.264355667
5.576897333
5.71071325
5.582234583
5.24334325
4.9451785
4.680672083
4.6422535
4.848194417
5.2734915
5.565645833
5.681238167
5.635174333
5.4789035
5.1327035
4.75202775
4.525026333
4.549308417
4.809102667
5.194827167
5.564059083
5.689700833
5.46606525
5.15852425
4.758615167
4.488386833
4.95801675
5.338644417
5.57367575
5.704558583
5.391968833
4.913106917
4.564550833
4.484684417
4.52584375
4.72577425
5.223100167
5.51222525
5.552374833
5.50616675
5.298831417
4.705386917
4.374910167
4.856801333
5.190066917
5.513860083
5.762739417
5.8181795
5.67609325
5.5902645
5.55088425
5.53501675
5.803369833
5.974883083
6.212799417
6.415566833
6.5423145
6.45908225
6.029601917
5.50270475
5.07572475
4.765491083
4.74019925
4.965758167
5.307919167
5.615315917
5.864387583
5.38326575
5.045239917
4.74712325
4.528392167
4.49237775
4.719619583
5.156841333
5.407115083
5.480009417
5.475489583
5.185450917
4.900845667
4.556665167
4.38707525
4.728418833
5.179921333
5.341096667
5.469911917
5.3369615
5.050096333
4.840837667
4.402846583
4.67297875
5.108854167
5.443321833
5.567953833
5.263442083
4.806313833
4.7063005
4.52815175
4.758903667
5.1182785
5.423848083
5.47991325
5.309361667
4.952919917
4.74394975
4.63893575
4.868629833
5.14034875
5.337298083
5.539873167
5.60844
5.349751667
4.966287083
4.698847583
4.433187167
4.676825417
5.11986525
5.369562
5.712348083
5.69196075
5.471642917
4.976288417
4.610566583
4.479587583
4.682547333
5.063223083
5.363263083
5.51222525
5.461641583
5.214300917
4.88041025
4.679710417
4.433619917
4.37034225
4.541230417
4.889978833
5.358070083
5.248584333
4.919598167
4.47362525
4.207724417
4.22695775
4.341876917
4.643311333
5.355185083
5.374514583
5.006580917
4.571811417
4.176085583
4.141465583
4.373708083
4.705435
4.959266917
5.010571833
5.08639925
4.88618025
4.601526917
4.205272167
3.91480075
4.129348583
4.357984833
4.714907417
5.168862167
5.086928167
4.8297785
4.435495167
4.192001167
4.103143167
4.187048583
4.345483167
4.633935083
5.06274225
5.218051417
5.294648167
5.081013917
4.625568583
4.060589417
4.1067975
4.104778
4.586765333
5.071493417
5.238342583
5.257047
4.987059083
4.546423417
4.15771775
3.916002833
3.861957167
4.18570225
4.749238917
5.0865435
5.36393625
5.402931833
4.983020083
4.154928917
3.984665833
3.971394833
4.150697583
5.022448417
5.2077135
5.07832125
4.9192135
4.164401333
3.858735583
3.7652135
4.057367833
4.99004025
5.170112333
5.017207333
4.801986333
4.0964115
3.820365083
3.869698583
4.15137075
4.828239833
5.161361167
5.11409525
4.786984333
4.137138083
4.0237095
3.932303083
4.107614917
4.9192135
5.160928417
5.176218917
4.85834
4.109971
3.978222667
4.0629455
4.140888583
4.800447667
5.115489667
5.053943
4.8182385
4.518150417
4.156948417
3.859793417
3.901914417
4.034576333
4.444582917
4.83771225
5.109527333
5.120826917
4.897624083
4.498340083
4.047318417
3.853302167
3.998225333
4.611576333
4.96119025
5.278588333
5.3554255
4.46410475
4.25465375
4.071360083
4.028710167
4.305477833
4.836221667
5.2481035
5.391872667
5.248199667
4.949025167
4.626145583
4.250230083
4.257346417
4.502956083
4.930128417
5.40778825
5.55723125
5.468325167
4.958641833
4.693702667
4.45458425
4.386834833
4.546808083
4.978981083
5.335038167
5.498858083
5.470152333
4.821892833
4.595756917
4.346444833
4.162526083
4.472230833
4.76991475
5.17237225
5.469911917
5.381294333
4.863581083
4.528296
4.222245583
4.236959083
4.452660917
4.719667667
5.024131333
5.29065725
5.390430167
5.124721667
4.696395333
4.247825917
3.9850505
4.099681167
4.33197175
4.641868833
5.030045583
5.284406417
4.941764583
4.47391375
4.138772917
3.9810115
4.353368833
4.621433417
5.005715417
5.257095083
4.970758833
4.509783917
4.129252417
3.91797425
3.8869605
4.191712667
4.681297167
4.94388025
5.103036083
4.856945583
4.494733833
4.1344935
3.907924833
4.15598675
4.491464167
4.97388425
5.150398167
4.892911917
4.430109833
4.053088417
3.749874917
3.864842167
4.220226083
4.524834
4.94791925
5.174055167
5.096641
4.81088175
4.31696975
4.05068425
3.941967833
3.832962917
4.05241525
4.452709
4.8557435
5.131212917
5.018697917
4.819681
4.464489417
3.98375225
3.76247275
3.943843083
4.31062275
4.696876167
4.95801675
5.12736625
5.146359167
4.959122667
4.569311083
4.182913417
3.903068417
3.896673333
4.153005583
4.495599333
4.860311417
5.096160167
5.032834417
4.853339333
4.535845083
4.11357725
3.8834985
3.876863
4.2989385
5.04745175
5.524967333
5.937137667
5.81947775
5.35730075
4.978115583
4.863773417
5.021390583
5.246661
5.3236905
5.376822583
5.152802333
4.659900083
4.205656833
4.040154
4.263116417
4.614846
4.886420667
4.95643
4.723129667
4.37813175
4.096507667
3.778773
3.976443583
4.47391375
4.902865167
5.017688167
4.6791815
4.226476917
3.909703917
3.727612333
3.889605083
4.124924917
4.420637417
4.71856175
5.037835083
5.009417833
4.6820665
4.289658417
3.933409
3.751750167
3.821711417
4.09049725
4.473577167
5.014658917
4.958353333
4.6970685
4.400538583
3.716216583
3.790313
4.264607
4.59046775
4.8961335
5.240410167
5.122221333
4.804438583
4.452083917
3.9706255
3.923792333
4.255038417
4.702501917
5.062982667
5.074138
4.84867525
4.557819167
4.038182583
3.885421833
4.097854
4.578543083
4.895796917
5.06908925
5.076446
4.84694425
4.4074145
3.99731175
3.754154333
3.87989225
4.126319333
4.505312167
4.812420417
4.965469667
5.11986525
5.041585583
4.526036083
3.855706333
3.88104625
4.118000917
4.468913083
4.908490917
5.20122225
5.1096235
4.914549417
4.453959167
4.099488833
3.931918417
3.890614833
4.088814333
4.463287333
4.737795083
5.090101667
5.013072167
4.790350167
4.119106833
3.883594667
3.860658917
4.173681417
4.967633417
5.022833083
5.120298
5.003118917
4.058089083
3.915522
3.988320167
4.309372583
4.9630655
5.280944417
5.300995167
5.00504225
4.266145667
3.90585725
3.888787667
4.120549333
4.975951833
5.208386667
5.2279085
4.976144167
4.548971833
4.251576417
4.16781525
4.23647825
4.49641675
4.9976855
5.232428333
5.236900083
4.968354667
4.202675667
4.01692975
4.0294795
4.26850175
4.72663975
5.112412333
5.341866
5.247766917
4.941043333
4.24253675
3.957162167
3.98952225
4.244989
4.713993833
5.03446925
5.197279417
5.08207175
4.859109333
4.582774417
4.304323833
3.999235083
4.271867583
4.792033083
5.04023925
5.241996917
5.150205833
4.5730135
4.191905
4.042510083
4.08097675
4.917386333
5.164486583
5.21449325
5.210790833
5.087986
4.66518925
4.351493583
4.110548
4.21657175
4.468672667
4.746594333
5.12101925
5.401489333
5.38932425
5.206896083
4.889401833
4.484203583
4.26128925
4.240373
4.527093917
5.016678417
5.413414
5.745862167
5.750910917
5.52463075
5.001772583
4.554645667
4.444005917
4.507187417
4.818478917
5.140877667
5.48943375
5.69801925
5.739419
5.362157167
5.0196115
4.734910083
4.796264417
5.122606
5.445052833
5.693210917
5.923962833
5.844096417
5.490924333
5.259162667
4.836750583
4.56998425
4.711253083
5.016534167
5.411009833
5.7754815
5.960169583
5.59531325
5.322248
4.984462583
4.779483333
4.940177833
5.306043917
5.59762125
5.90573925
5.39653675
5.018794083
4.751066083
4.49266625
4.85127175
5.258201
5.473999
5.668063333
5.46895025
5.085197167
4.738324
4.50709125
4.59392975
4.938206417
5.451496
5.634356917
5.213964333
4.804679
4.60200775
4.530507833
4.775829
5.0744265
5.329989417
5.579974667
5.601612167
5.359368333
5.029228167
4.736016
4.388036917
4.6191735
5.036104083
5.309457833
5.560645167
5.588773917
5.3542715
4.98282775
4.654610917
4.306776083
4.334472083
4.640426333
5.037979333
5.222619333
5.391968833
5.559202667
5.299793083
4.943832167
4.529834667
4.169882833
4.48487675
5.036440667
5.346385833
5.44154275
5.50414725
5.32902775
4.91027
4.510986
4.28869675
4.57344625
5.042883833
5.200981833
5.480971083
5.150638583
4.69432775
4.347069917
4.401019417
4.505600667
4.9169055
5.200741417
5.390141667
5.356194833
5.1298185
4.787849833
4.417896667
4.180990083
4.432273583
4.908298583
5.294503917
5.635366667
5.854290083
5.75629625
5.495155667
5.2532965
5.210261917
5.310179083
5.544393
5.9185775
6.042151667
6.168514667
6.034602583
5.701433167
5.260460917
4.740680083
4.338463
4.315575333
4.484540167
4.9215215
5.429521917
5.62762525
5.54020975
5.209492583
4.78318575
4.426551667
4.101556417
4.051934417
4.266386083
4.72260075
5.48395225
5.439138583
5.11034475
4.630809667
4.371448167
4.197482667
4.228592583
4.414098083
4.793331333
5.3652345
5.378120833
5.160591833
4.71798475
4.090978083
4.136897667
4.444534833
4.902288167
5.1303955
5.3992775
5.440196417
5.215262583
4.793956417
4.208686083
4.326971083
4.579889417
4.961863417
5.445485583
5.519630083
5.254162
4.873919
4.444438667
4.349810667
4.58296675
5.100103
5.449813083
5.686238833
5.671717667
5.426877333
4.9780675
4.483482333
4.269126833
4.332644917
4.7414975
5.11149875
5.413991
5.590024083
5.546364417
5.352155833
4.945226583
4.670045667
4.311247833
4.334616333
4.75693225
5.110585167
5.389372333
5.647916417
5.543816
5.393170917
4.487569417
4.233833667
4.232487333
4.618067583
5.390959083
5.441638917
5.529775667
5.331672333
4.46612425
4.322884
4.358321417
4.607585417
5.530593083
5.609065083
5.460247167
5.220647917
4.5066585
4.299034667
4.41563675
4.682980083
5.454140583
5.62820225
5.653205583
5.36768675
4.55296275
4.357023167
4.37120775
4.68192225
5.44442775
5.612430917
5.614017667
5.344510583
4.599892083
4.353513083
4.429003917
4.716398
5.488039333
5.644214
5.668351833
5.4200495
4.989415167
4.554741833
4.389190917
4.46554725
4.603690667
4.9861455
5.54165225
5.858040583
5.77245225
5.38182325
4.845405583
4.422801167
4.335193333
4.440399667
5.208098167
5.537853667
5.729946583
5.563482083
4.943399417
4.719331083
4.53247925
4.643215167
5.083995083
5.4004315
5.688883417
5.69599975
4.956478083
4.758855583
4.535460417
4.55642475
5.341048583
5.714992667
5.911893917
5.78687725
5.093659833
4.865744833
4.622827833
4.569743833
4.91185675
5.37086025
5.7166275
6.03989175
5.999020917
5.790243083
5.367831
4.9238295
4.742459167
4.9336385
5.317872417
5.697634583
5.950601
6.069847667
6.075906167
5.927617167
5.5764165
5.1852105
4.9953775
5.021005917
5.408701833
5.826930667
6.138029833
6.38739
6.311706833
5.884582583
5.448226333
5.100776167
4.983020083
5.02350625
5.15131175
5.632433583
6.115142167
6.375801917
5.75716175
5.522082333
5.227235333
4.935561833
5.328643083
5.759517833
6.10595825
6.07912775
5.875398667
5.39884475
5.076974917
4.83973175
5.117797667
5.4990985
5.80822625
5.988586833
5.652869
5.307342167
4.95022725
4.705819667
4.725678083
4.997974
5.518476083
5.87688925
5.936368333
5.412308083
5.080869667
4.843338
4.670718833
4.825931833
4.918540333
5.297773583
5.753074667
5.89794975
5.6081515
5.139675583
4.8534355
4.610710833
4.841558917
5.27478975
5.698067333
5.918337083
5.627865667
5.140829583
4.733948417
4.541807417
4.574840667
4.94214925
5.3109965
5.600939
5.878427917
5.678064667
5.332730167
5.10313225
4.913924333
4.761067417
4.923925667
5.218436083
5.54944175
5.789137167
5.478615
5.038700583
4.679133417
4.580706833
4.910029583
5.290897667
5.61550825
5.780001333
5.6762375
5.38095775
5.2498345
4.937725583
4.680239333
4.627443833
4.73442925
5.118567
5.558721833
5.70321225
5.4587085
5.202328167
4.8095835
4.462037167
4.595612667
4.906759917
5.288830083
5.60166025
5.805725917
5.885015333
5.783799917
5.552999917
5.383794667
5.357396917
5.505685917
5.797792167
6.050614333
6.242514917
6.485720417
6.08691725
5.614161917
5.311669667
4.948592417
4.674469333
4.924791167
5.3715815
5.662629917
5.86852275
5.850203
5.60656475
5.20035675
4.670622667
4.445111833
4.451458833
4.6751425
5.026006583
5.686863917
5.672727417
5.427598583
4.8972875
4.508149083
4.685191917
4.74452675
4.996243
5.758411917
5.606180083
5.40490325
4.983068167
4.66461225
4.663121667
4.664468
4.825979917
5.137608
5.748266333
5.578195583
5.293734583
4.870649333
4.287638917
4.592823833
5.023025417
5.156408583
5.777404833
5.8389515
5.4679405
5.163236417
4.727264833
4.566281833
4.691490833
4.943832167
5.332682083
5.861069833
5.720329917
5.61031525
5.119624833
4.563829583
4.596910917
4.863292583
5.308207667
5.635751333
5.765432083
5.77360625
5.560308583
5.17496875
4.801553583
4.554020583
4.539836
4.814295667
5.23180325
5.60339125
5.867416833
5.77995325
5.341866
4.763183083
4.50536025
4.547673583
4.852954667
5.533478083
5.782165083
5.666332333
5.455919667
5.123279167
4.742266833
4.51791
4.6191735
4.961286417
5.5002525
5.77
5.83534525
5.540305917
4.61383625
4.582582083
4.635281417
4.903105583
5.540450167
5.739755583
5.728119417
5.466978833
4.670045667
4.53190225
4.725389583
5.046970917
5.645175667
5.727302
5.678208917
5.485442833
5.144051167
4.736593
4.506898917
4.559550167
4.824489333
5.658590917
5.969738167
5.867897667
5.553721167
4.768856917
4.41852175
4.408616583
4.792033083
5.250892333
5.714031
5.949831667
5.884486417
5.534968667
5.152273417
4.846271083
4.609893417
4.533825583
5.33191275
5.613729167
5.80620675
5.789618
5.470921667
5.0507695
4.7172635
4.61902925
4.736208333
5.343693167
5.646858583
5.985461417
5.849626
5.29671575
4.770828333
4.610422333
4.666150917
5.339606083
5.877850917
5.9693535
5.8302965
5.26801
4.973403417
4.824104667
4.89916275
5.498136833
5.921077833
6.21241475
6.185343833
5.936512583
5.48510625
5.141743167
