Time (s),Channel 1 (V)
-1.12925,-0.015716996
-1.129,-0.013340576
-1.12875,-0.015038019
-1.1285,-0.012661599
-1.12825,-0.015377507
-1.128,-0.013340576
-1.12775,-0.017414438
-1.1275,-0.015716996
-1.12725,-0.018772393
-1.127,-0.017414438
-1.12675,-0.023185743
-1.1265,-0.02386472
-1.12625,-0.027599094
-1.126,-0.024204209
-1.12575,-0.024543698
-1.1255,-0.020809324
-1.12525,-0.021148812
-1.125,-0.017753927
-1.12475,-0.018432904
-1.1245,-0.016395973
-1.12425,-0.019111881
-1.124,-0.018772393
-1.12375,-0.024543698
-1.1235,-0.02624114
-1.12325,-0.034049376
-1.123,-0.035407331
-1.12275,-0.040839147
-1.1225,-0.040499658
-1.12225,-0.044234032
-1.122,-0.041518124
-1.12175,-0.045591986
-1.1215,-0.042876078
-1.12125,-0.045591986
-1.121,-0.043215567
-1.12075,-0.045591986
-1.1205,-0.043555055
-1.12025,-0.045252498
-1.12,-0.043894544
-1.11975,-0.046949941
-1.1195,-0.04253659
-1.11925,-0.042197101
-1.119,-0.038802216
-1.11875,-0.040839147
-1.1185,-0.04016017
-1.11825,-0.042197101
-1.118,-0.040839147
-1.11775,-0.041857613
-1.1175,-0.040499658
-1.11725,-0.04016017
-1.117,-0.039481193
-1.11675,-0.038802216
-1.1165,-0.036425796
-1.11625,-0.034728353
-1.116,-0.032691422
-1.11575,-0.029975514
-1.1155,-0.026920117
-1.11525,-0.024883186
-1.115,-0.022506766
-1.11475,-0.020809324
-1.1145,-0.019790858
-1.11425,-0.018772393
-1.114,-0.019111881
-1.11375,-0.018093415
-1.1135,-0.017753927
-1.11325,-0.016056484
-1.113,-0.01469853
-1.11275,-0.011982622
-1.1125,-0.010624668
-1.11225,-0.010285179
-1.112,-0.009945691
-1.11175,-0.008248248
-1.1115,-0.009606202
-1.11125,-0.010285179
-1.111,-0.011982622
-1.11075,-0.011643133
-1.1105,-0.012661599
-1.11025,-0.013001088
-1.11,-0.014359042
-1.10975,-0.011643133
-1.1095,-0.010624668
-1.10925,-0.009606202
-1.109,-0.013001088
-1.10875,-0.01232211
-1.1085,-0.013680065
-1.10825,-0.011303645
-1.108,-0.013001088
-1.10775,-0.010624668
-1.1075,-0.012661599
-1.10725,-0.009606202
-1.107,-0.011982622
-1.10675,-0.010624668
-1.1065,-0.01469853
-1.10625,-0.013340576
-1.106,-0.016395973
-1.10575,-0.015716996
-1.1055,-0.022506766
-1.10525,-0.024204209
-1.105,-0.03099398
-1.10475,-0.030654491
-1.1045,-0.034388865
-1.10425,-0.029975514
-1.104,-0.030654491
-1.10375,-0.024543698
-1.1035,-0.024883186
-1.10325,-0.018432904
-1.103,-0.018093415
-1.10275,-0.011982622
-1.1025,-0.011643133
-1.10225,-0.006890294
-1.102,-0.010624668
-1.10175,-0.010964156
-1.1015,-0.01707495
-1.10125,-0.01707495
-1.101,-0.022167278
-1.10075,-0.022506766
-1.1005,-0.027599094
-1.10025,-0.027938583
-1.1,-0.034388865
-1.09975,-0.033709888
-1.0995,-0.037444262
-1.09925,-0.034049376
-1.099,-0.035746819
-1.09875,-0.032351934
-1.0985,-0.035067842
-1.09825,-0.03099398
-1.098,-0.033030911
-1.09775,-0.029296537
-1.0975,-0.031333468
-1.09725,-0.026580629
-1.097,-0.028957048
-1.09675,-0.02386472
-1.0965,-0.025222675
-1.09625,-0.019790858
-1.096,-0.020130347
-1.09575,-0.015038019
-1.0955,-0.016056484
-1.09525,-0.012661599
-1.095,-0.014019553
-1.09475,-0.010624668
-1.0945,-0.011982622
-1.09425,-0.008927225
-1.094,-0.011303645
-1.09375,-0.009606202
-1.0935,-0.011982622
-1.09325,-0.010285179
-1.093,-0.010964156
-1.09275,-0.008248248
-1.0925,-0.00790876
-1.09225,-0.004513874
-1.092,-0.003495409
-1.09175,0.000578454
-1.0915,0.001596919
-1.09125,0.004991805
-1.091,0.004991805
-1.09075,0.007028736
-1.0905,0.004991805
-1.09025,0.005331293
-1.09,0.00363385
-1.08975,0.004312828
-1.0895,0.00363385
-1.08925,0.004991805
-1.089,0.005670782
-1.08875,0.009744644
-1.0885,0.012121064
-1.08825,0.013139529
-1.088,0.011102598
-1.08775,0.008726178
-1.0875,0.004652316
-1.08725,-0.001458477
-1.087,-0.006890294
-1.08675,-0.010964156
-1.0865,-0.009945691
-1.08625,-0.008587737
-1.086,-0.004174386
-1.08575,-0.001797966
-1.0855,0.001257431
-1.08525,0.002615385
-1.085,0.005670782
-1.08475,0.00601027
-1.0845,0.007368224
-1.08425,0.005670782
-1.084,0.004991805
-1.08375,0.001936408
-1.0835,0.000917942
-1.08325,-0.003495409
-1.083,-0.003834897
-1.08275,-0.008248248
-1.0825,-0.007569271
-1.08225,-0.013001088
-1.082,-0.013680065
-1.08175,-0.01945137
-1.0815,-0.019790858
-1.08125,-0.024204209
-1.081,-0.023525232
-1.08075,-0.027938583
-1.0805,-0.028278071
-1.08025,-0.033709888
-1.08,-0.036086308
-1.07975,-0.04253659
-1.0795,-0.040499658
-1.07925,-0.041857613
-1.079,-0.038123239
-1.07875,-0.040839147
-1.0785,-0.036765285
-1.07825,-0.037104773
-1.078,-0.032012445
-1.07775,-0.031672957
-1.0775,-0.027938583
-1.07725,-0.028957048
-1.077,-0.025562163
-1.07675,-0.027599094
-1.0765,-0.023185743
-1.07625,-0.022846255
-1.076,-0.01707495
-1.07575,-0.01707495
-1.0755,-0.013340576
-1.07525,-0.014019553
-1.075,-0.010964156
-1.07475,-0.011643133
-1.0745,-0.006550805
-1.07425,-0.006211317
-1.074,-0.000440012
-1.07375,0.000578454
-1.0735,0.006689247
-1.07325,0.007028736
-1.073,0.012121064
-1.07275,0.010084133
-1.0725,0.013479018
-1.07225,0.010084133
-1.072,0.01076311
-1.07175,0.005331293
-1.0715,0.004991805
-1.07125,0.000917942
-1.071,0.002615385
-1.07075,0.001936408
-1.0705,0.007028736
-1.07025,0.008726178
-1.07,0.014157995
-1.06975,0.015515949
-1.0695,0.018910834
-1.06925,0.01755288
-1.069,0.018231857
-1.06875,0.016194926
-1.0685,0.01755288
-1.06825,0.015176461
-1.068,0.014836972
-1.06775,0.012121064
-1.0675,0.01076311
-1.06725,0.00838669
-1.067,0.007707713
-1.06675,0.004652316
-1.0665,0.004312828
-1.06625,0.003294362
-1.066,0.003973339
-1.06575,0.002615385
-1.0655,0.003973339
-1.06525,0.004312828
-1.065,0.004652316
-1.06475,0.004991805
-1.0645,0.004312828
-1.06425,0.004312828
-1.064,-0.001118989
-1.06375,-0.004174386
-1.0635,-0.009606202
-1.06325,-0.011303645
-1.063,-0.014359042
-1.06275,-0.016735461
-1.0625,-0.01945137
-1.06225,-0.020130347
-1.062,-0.022506766
-1.06175,-0.023525232
-1.0615,-0.025562163
-1.06125,-0.02624114
-1.061,-0.027259606
-1.06075,-0.026580629
-1.0605,-0.027599094
-1.06025,-0.02861756
-1.06,-0.033030911
-1.05975,-0.034728353
-1.0595,-0.036765285
-1.05925,-0.035407331
-1.059,-0.035407331
-1.05875,-0.034049376
-1.0585,-0.036425796
-1.05825,-0.034388865
-1.058,-0.035746819
-1.05775,-0.032012445
-1.0575,-0.032691422
-1.05725,-0.028957048
-1.057,-0.030654491
-1.05675,-0.026920117
-1.0565,-0.028278071
-1.05625,-0.024543698
-1.056,-0.025562163
-1.05575,-0.022167278
-1.0555,-0.024204209
-1.05525,-0.021148812
-1.055,-0.023185743
-1.05475,-0.018432904
-1.0545,-0.01945137
-1.05425,-0.013340576
-1.054,-0.014359042
-1.05375,-0.009266714
-1.0535,-0.010624668
-1.05325,-0.008248248
-1.053,-0.011643133
-1.05275,-0.009606202
-1.0525,-0.01232211
-1.05225,-0.008927225
-1.052,-0.010285179
-1.05175,-0.00553234
-1.0515,-0.005871828
-1.05125,-0.0007795
-1.051,-0.002137455
-1.05075,0.002954873
-1.0505,0.001596919
-1.05025,0.007368224
-1.05,0.006689247
-1.04975,0.011102598
-1.0495,0.008726178
-1.04925,0.010084133
-1.049,0.005670782
-1.04875,0.008047201
-1.0485,0.00601027
-1.04825,0.010084133
-1.048,0.008047201
-1.04775,0.011102598
-1.0475,0.009065667
-1.04725,0.013139529
-1.047,0.011102598
-1.04675,0.014497483
-1.0465,0.01076311
-1.04625,0.013479018
-1.046,0.013139529
-1.04575,0.016873903
-1.0455,0.014497483
-1.04525,0.015855438
-1.045,0.010084133
-1.04475,0.009065667
-1.0445,0.002954873
-1.04425,0.002615385
-1.044,-0.0007795
-1.04375,0.001257431
-1.0435,-0.002137455
-1.04325,-0.002476943
-1.043,-0.005871828
-1.04275,-0.006211317
-1.0425,-0.013001088
-1.04225,-0.014359042
-1.042,-0.019111881
-1.04175,-0.021827789
-1.0415,-0.02624114
-1.04125,-0.027938583
-1.041,-0.031333468
-1.04075,-0.033370399
-1.0405,-0.036425796
-1.04025,-0.036765285
-1.04,-0.037104773
-1.03975,-0.034388865
-1.0395,-0.033370399
-1.03925,-0.030654491
-1.039,-0.02861756
-1.03875,-0.027599094
-1.0385,-0.027599094
-1.03825,-0.02624114
-1.038,-0.026920117
-1.03775,-0.025901652
-1.0375,-0.025901652
-1.03725,-0.025562163
-1.037,-0.025222675
-1.03675,-0.024204209
-1.0365,-0.022167278
-1.03625,-0.020809324
-1.036,-0.017414438
-1.03575,-0.016395973
-1.0355,-0.013340576
-1.03525,-0.011982622
-1.035,-0.009606202
-1.03475,-0.008587737
-1.0345,-0.005192851
-1.03425,-0.004853363
-1.034,-0.002137455
-1.03375,-0.002816432
-1.0335,-0.0007795
-1.03325,-0.00315592
-1.033,-0.001118989
-1.03275,-0.004174386
-1.0325,-0.001118989
-1.03225,-0.001797966
-1.032,0.002275896
-1.03175,0.000238965
-1.0315,0.002615385
-1.03125,0.000578454
-1.031,0.003973339
-1.03075,0.002275896
-1.0305,0.004312828
-1.03025,0.002275896
-1.03,0.005331293
-1.02975,0.003294362
-1.0295,0.004991805
-1.02925,0.001936408
-1.029,0.002615385
-1.02875,0.000578454
-1.0285,0.004652316
-1.02825,0.003973339
-1.028,0.007368224
-1.02775,0.004991805
-1.0275,0.007368224
-1.02725,0.004991805
-1.027,0.008047201
-1.02675,0.004652316
-1.0265,0.006349759
-1.02625,0.003294362
-1.026,0.00601027
-1.02575,0.004312828
-1.0255,0.004991805
-1.02525,0.002275896
-1.025,0.001936408
-1.02475,-0.003495409
-1.0245,-0.00553234
-1.02425,-0.010624668
-1.024,-0.011303645
-1.02375,-0.015038019
-1.0235,-0.014359042
-1.02325,-0.018772393
-1.023,-0.019111881
-1.02275,-0.02386472
-1.0225,-0.022506766
-1.02225,-0.024204209
-1.022,-0.020809324
-1.02175,-0.024543698
-1.0215,-0.024543698
-1.02125,-0.029636026
-1.021,-0.028957048
-1.02075,-0.031333468
-1.0205,-0.029636026
-1.02025,-0.032351934
-1.02,-0.032012445
-1.01975,-0.035407331
-1.0195,-0.033709888
-1.01925,-0.036425796
-1.019,-0.038123239
-1.01875,-0.042197101
-1.0185,-0.04253659
-1.01825,-0.044573521
-1.018,-0.043555055
-1.01775,-0.042197101
-1.0175,-0.03778375
-1.01725,-0.035746819
-1.017,-0.034728353
-1.01675,-0.031333468
-1.0165,-0.026580629
-1.01625,-0.020130347
-1.016,-0.016735461
-1.01575,-0.013001088
-1.0155,-0.010964156
-1.01525,-0.009266714
-1.015,-0.008587737
-1.01475,-0.007569271
-1.0145,-0.006890294
-1.01425,-0.005192851
-1.014,-0.004853363
-1.01375,-0.002816432
-1.0135,-0.001458477
-1.01325,0.000917942
-1.013,0.003294362
-1.01275,0.005331293
-1.0125,0.006689247
-1.01225,0.007707713
-1.012,0.007028736
-1.01175,0.007707713
-1.0115,0.005331293
-1.01125,0.004652316
-1.011,0.002615385
-1.01075,0.002615385
-1.0105,0.000917942
-1.01025,0.001257431
-1.01,0.000917942
-1.00975,0.004312828
-1.0095,0.004991805
-1.00925,0.007707713
-1.009,0.004991805
-1.00875,0.006689247
-1.0085,0.004991805
-1.00825,0.007707713
-1.008,0.005331293
-1.00775,0.007368224
-1.0075,0.006689247
-1.00725,0.012121064
-1.007,0.012460552
-1.00675,0.018231857
-1.0065,0.017213392
-1.00625,0.021626743
-1.006,0.020268788
-1.00575,0.02230572
-1.0055,0.016534415
-1.00525,0.016194926
-1.005,0.009405156
-1.00475,0.00838669
-1.0045,0.002615385
-1.00425,0.003973339
-1.004,-0.000100523
-1.00375,0.001596919
-1.0035,-0.004174386
-1.00325,-0.004174386
-1.003,-0.011643133
-1.00275,-0.011982622
-1.0025,-0.018772393
-1.00225,-0.018432904
-1.002,-0.023525232
-1.00175,-0.022167278
-1.0015,-0.025562163
-1.00125,-0.022506766
-1.001,-0.025901652
-1.00075,-0.024204209
-1.0005,-0.028278071
-1.00025,-0.027599094
-1,-0.035067842
-0.99975,-0.034728353
-0.9995,-0.039141704
-0.99925,-0.035407331
-0.999,-0.038123239
-0.99875,-0.034728353
-0.9985,-0.036425796
-0.99825,-0.033030911
-0.998,-0.035407331
-0.99775,-0.032012445
-0.9975,-0.034388865
-0.99725,-0.029296537
-0.997,-0.029636026
-0.99675,-0.02386472
-0.9965,-0.023185743
-0.99625,-0.017753927
-0.996,-0.018772393
-0.99575,-0.015038019
-0.9955,-0.01707495
-0.99525,-0.01469853
-0.995,-0.017753927
-0.99475,-0.01232211
-0.9945,-0.011643133
-0.99425,-0.005192851
-0.994,-0.004174386
-0.99375,0.000917942
-0.9935,0.001257431
-0.99325,0.001936408
-0.993,0.002275896
-0.99275,0.005331293
-0.9925,0.00838669
-0.99225,0.01076311
-0.992,0.009744644
-0.99175,0.011102598
-0.9915,0.008726178
-0.99125,0.008726178
-0.991,0.007368224
-0.99075,0.007707713
-0.9905,0.006349759
-0.99025,0.007368224
-0.99,0.006349759
-0.98975,0.008047201
-0.9895,0.008047201
-0.98925,0.009405156
-0.989,0.008047201
-0.98875,0.009405156
-0.9885,0.010084133
-0.98825,0.01076311
-0.988,0.010084133
-0.98775,0.008726178
-0.9875,0.007368224
-0.98725,0.007028736
-0.987,0.006349759
-0.98675,0.004991805
-0.9865,0.004991805
-0.98625,0.002615385
-0.986,0.002954873
-0.98575,0.001936408
-0.9855,0.002954873
-0.98525,0.00363385
-0.985,0.004991805
-0.98475,0.00363385
-0.9845,0.003294362
-0.98425,0.001257431
-0.984,0.001596919
-0.98375,-0.001458477
-0.9835,-0.0007795
-0.98325,-0.004174386
-0.983,-0.004513874
-0.98275,-0.009266714
-0.9825,-0.010964156
-0.98225,-0.018093415
-0.982,-0.020130347
-0.98175,-0.027259606
-0.9815,-0.027259606
-0.98125,-0.030315003
-0.981,-0.027599094
-0.98075,-0.02861756
-0.9805,-0.025562163
-0.98025,-0.029975514
-0.98,-0.030654491
-0.97975,-0.035067842
-0.9795,-0.033709888
-0.97925,-0.036086308
-0.979,-0.032691422
-0.97875,-0.034728353
-0.9785,-0.032691422
-0.97825,-0.035407331
-0.978,-0.033370399
-0.97775,-0.035407331
-0.9775,-0.033030911
-0.97725,-0.034728353
-0.977,-0.032691422
-0.97675,-0.034049376
-0.9765,-0.029296537
-0.97625,-0.02861756
-0.976,-0.023185743
-0.97575,-0.022846255
-0.9755,-0.017414438
-0.97525,-0.016056484
-0.975,-0.010285179
-0.97475,-0.009945691
-0.9745,-0.006550805
-0.97425,-0.006890294
-0.974,-0.002816432
-0.97375,-0.002476943
-0.9735,0.002275896
-0.97325,0.001596919
-0.973,0.005331293
-0.97275,0.003294362
-0.9725,0.007028736
-0.97225,0.005331293
-0.972,0.009405156
-0.97175,0.00838669
-0.9715,0.011442087
-0.97125,0.009065667
-0.971,0.010423621
-0.97075,0.00838669
-0.9705,0.010084133
-0.97025,0.008047201
-0.97,0.01076311
-0.96975,0.010084133
-0.9695,0.011442087
-0.96925,0.007028736
-0.969,0.005670782
-0.96875,0.005331293
-0.9685,0.007368224
-0.96825,0.007707713
-0.968,0.009405156
-0.96775,0.008726178
-0.9675,0.009744644
-0.96725,0.006349759
-0.967,0.005331293
-0.96675,0.003973339
-0.9665,0.004312828
-0.96625,0.004991805
-0.966,0.004652316
-0.96575,0.004312828
-0.9655,0.002615385
-0.96525,0.001936408
-0.965,-0.000100523
-0.96475,-0.001118989
-0.9645,-0.00315592
-0.96425,-0.004174386
-0.964,-0.007229782
-0.96375,-0.008927225
-0.9635,-0.013340576
-0.96325,-0.016056484
-0.963,-0.020809324
-0.96275,-0.023185743
-0.9625,-0.027259606
-0.96225,-0.027938583
-0.962,-0.030315003
-0.96175,-0.03099398
-0.9615,-0.033370399
-0.96125,-0.034728353
-0.961,-0.03778375
-0.96075,-0.039820681
-0.9605,-0.042876078
-0.96025,-0.043555055
-0.96,-0.046270964
-0.95975,-0.044913009
-0.9595,-0.045591986
-0.95925,-0.043215567
-0.959,-0.043215567
-0.95875,-0.04016017
-0.9585,-0.040839147
-0.95825,-0.036425796
-0.958,-0.036765285
-0.95775,-0.031672957
-0.9575,-0.031672957
-0.95725,-0.025562163
-0.957,-0.025222675
-0.95675,-0.018432904
-0.9565,-0.017753927
-0.95625,-0.011982622
-0.956,-0.013001088
-0.95575,-0.009266714
-0.9555,-0.011982622
-0.95525,-0.008248248
-0.955,-0.010624668
-0.95475,-0.007229782
-0.9545,-0.008927225
-0.95425,-0.005192851
-0.954,-0.009266714
-0.95375,-0.006890294
-0.9535,-0.010964156
-0.95325,-0.007569271
-0.953,-0.010624668
-0.95275,-0.00790876
-0.9525,-0.009606202
-0.95225,-0.005871828
-0.952,-0.009266714
-0.95175,-0.006550805
-0.9515,-0.008587737
-0.95125,-0.004853363
-0.951,-0.005871828
-0.95075,0.000238965
-0.9505,-0.000100523
-0.95025,0.003294362
-0.95,0.000917942
-0.94975,0.003973339
-0.9495,-0.001797966
-0.94925,-0.0007795
-0.949,-0.004853363
-0.94875,-0.0007795
-0.9485,-0.0007795
-0.94825,0.004652316
-0.948,0.002275896
-0.94775,0.00601027
-0.9475,0.002275896
-0.94725,0.005331293
-0.947,0.002275896
-0.94675,0.004991805
-0.9465,0.001936408
-0.94625,0.005331293
-0.946,0.002954873
-0.94575,0.006689247
-0.9455,0.002615385
-0.94525,0.002615385
-0.945,-0.002816432
-0.94475,-0.004174386
-0.9445,-0.010285179
-0.94425,-0.011982622
-0.944,-0.01945137
-0.94375,-0.019111881
-0.9435,-0.021488301
-0.94325,-0.018432904
-0.943,-0.021148812
-0.94275,-0.020809324
-0.9425,-0.024543698
-0.94225,-0.024543698
-0.942,-0.026920117
-0.94175,-0.027938583
-0.9415,-0.029975514
-0.94125,-0.030654491
-0.941,-0.033030911
-0.94075,-0.033370399
-0.9405,-0.036086308
-0.94025,-0.036765285
-0.94,-0.039481193
-0.93975,-0.039141704
-0.9395,-0.03778375
-0.93925,-0.035746819
-0.939,-0.035067842
-0.93875,-0.034728353
-0.9385,-0.035746819
-0.93825,-0.036425796
-0.938,-0.035746819
-0.93775,-0.034388865
-0.9375,-0.032691422
-0.93725,-0.030654491
-0.937,-0.029975514
-0.93675,-0.029296537
-0.9365,-0.027938583
-0.93625,-0.027259606
-0.936,-0.024543698
-0.93575,-0.025562163
-0.9355,-0.023185743
-0.93525,-0.022167278
-0.935,-0.018772393
-0.93475,-0.01707495
-0.9345,-0.013680065
-0.93425,-0.011982622
-0.934,-0.008248248
-0.93375,-0.008248248
-0.9335,-0.004513874
-0.93325,-0.00553234
-0.933,-0.002137455
-0.93275,-0.003834897
-0.9325,-0.000440012
-0.93225,-0.002476943
-0.932,0.001257431
-0.93175,0.000238965
-0.9315,0.002615385
-0.93125,-0.000100523
-0.931,0.001936408
-0.93075,-0.0007795
-0.9305,0.001596919
-0.93025,0.000238965
-0.93,0.003973339
-0.92975,0.003294362
-0.9295,0.006689247
-0.92925,0.003294362
-0.929,0.004312828
-0.92875,0.000238965
-0.9285,0.000578454
-0.92825,-0.004174386
-0.928,-0.003834897
-0.92775,-0.008587737
-0.9275,-0.007569271
-0.92725,-0.010285179
-0.927,-0.00790876
-0.92675,-0.009945691
-0.9265,-0.005871828
-0.92625,-0.006550805
-0.926,-0.003834897
-0.92575,-0.006550805
-0.9255,-0.005871828
-0.92525,-0.008587737
-0.925,-0.008248248
-0.92475,-0.011643133
-0.9245,-0.011643133
-0.92425,-0.015716996
-0.924,-0.016735461
-0.92375,-0.021488301
-0.9235,-0.021827789
-0.92325,-0.027599094
-0.923,-0.02624114
-0.92275,-0.027938583
-0.9225,-0.025901652
-0.92225,-0.02861756
-0.922,-0.027259606
-0.92175,-0.03099398
-0.9215,-0.029296537
-0.92125,-0.035067842
-0.921,-0.033370399
-0.92075,-0.036086308
-0.9205,-0.032691422
-0.92025,-0.037444262
-0.92,-0.04016017
-0.91975,-0.045252498
-0.9195,-0.046949941
-0.91925,-0.049665849
-0.919,-0.048307895
-0.91875,-0.049665849
-0.9185,-0.047628918
-0.91825,-0.047628918
-0.918,-0.045931475
-0.91775,-0.044913009
-0.9175,-0.042876078
-0.91725,-0.040839147
-0.917,-0.039820681
-0.91675,-0.037104773
-0.9165,-0.034049376
-0.91625,-0.029296537
-0.916,-0.025901652
-0.91575,-0.022846255
-0.9155,-0.021827789
-0.91525,-0.020130347
-0.915,-0.01945137
-0.91475,-0.018772393
-0.9145,-0.019111881
-0.91425,-0.017414438
-0.914,-0.018093415
-0.91375,-0.016056484
-0.9135,-0.016395973
-0.91325,-0.015377507
-0.913,-0.015716996
-0.91275,-0.014359042
-0.9125,-0.014019553
-0.91225,-0.011982622
-0.912,-0.011982622
-0.91175,-0.010285179
-0.9115,-0.010624668
-0.91125,-0.008927225
-0.911,-0.009606202
-0.91075,-0.008248248
-0.9105,-0.008927225
-0.91025,-0.007229782
-0.91,-0.00790876
-0.90975,-0.004174386
-0.9095,-0.006550805
-0.90925,-0.004853363
-0.909,-0.008927225
-0.90875,-0.00790876
-0.9085,-0.009606202
-0.90825,-0.006890294
-0.908,-0.006890294
-0.90775,-0.003834897
-0.9075,-0.005192851
-0.90725,-0.002476943
-0.907,-0.004513874
-0.90675,-0.002137455
-0.9065,-0.005871828
-0.90625,-0.00315592
-0.906,-0.005192851
-0.90575,-0.002476943
-0.9055,-0.006890294
-0.90525,-0.005192851
-0.905,-0.009606202
-0.90475,-0.008248248
-0.9045,-0.013340576
-0.90425,-0.011303645
-0.904,-0.016735461
-0.90375,-0.015038019
-0.9035,-0.020130347
-0.90325,-0.018772393
-0.903,-0.02386472
-0.90275,-0.023525232
-0.9025,-0.029636026
-0.90225,-0.030654491
-0.902,-0.037104773
-0.90175,-0.036086308
-0.9015,-0.038462727
-0.90125,-0.034388865
-0.901,-0.037104773
-0.90075,-0.034049376
-0.9005,-0.038123239
-0.90025,-0.037104773
-0.9,-0.044234032
-0.89975,-0.041857613
-0.8995,-0.045591986
-0.89925,-0.042197101
-0.899,-0.045591986
-0.89875,-0.043894544
-0.8985,-0.047289429
-0.89825,-0.044913009
-0.898,-0.050344826
-0.89775,-0.046949941
-0.8975,-0.04932636
-0.89725,-0.043215567
-0.897,-0.045591986
-0.89675,-0.041178636
-0.8965,-0.041857613
-0.89625,-0.035746819
-0.896,-0.033709888
-0.89575,-0.027938583
-0.8955,-0.027599094
-0.89525,-0.02386472
-0.895,-0.025901652
-0.89475,-0.023185743
-0.8945,-0.024883186
-0.89425,-0.020130347
-0.894,-0.01945137
-0.89375,-0.015038019
-0.8935,-0.015038019
-0.89325,-0.013001088
-0.893,-0.014019553
-0.89275,-0.01232211
-0.8925,-0.011982622
-0.89225,-0.010964156
-0.892,-0.012661599
-0.89175,-0.013680065
-0.8915,-0.01469853
-0.89125,-0.013340576
-0.891,-0.014019553
-0.89075,-0.01232211
-0.8905,-0.013340576
-0.89025,-0.011982622
-0.89,-0.012661599
-0.88975,-0.009945691
-0.8895,-0.010285179
-0.88925,-0.011303645
-0.889,-0.013340576
-0.88875,-0.014359042
-0.8885,-0.015377507
-0.88825,-0.015038019
-0.888,-0.015377507
-0.88775,-0.016735461
-0.8875,-0.01469853
-0.88725,-0.010624668
-0.887,-0.005871828
-0.88675,-0.001797966
-0.8865,0.001596919
-0.88625,0.002954873
-0.886,0.006349759
-0.88575,0.006689247
-0.8855,0.007368224
-0.88525,0.004652316
-0.885,0.002275896
-0.88475,-0.002137455
-0.8845,-0.004853363
-0.88425,-0.009945691
-0.884,-0.012661599
-0.88375,-0.019111881
-0.8835,-0.021148812
-0.88325,-0.027259606
-0.883,-0.027938583
-0.88275,-0.030654491
-0.8825,-0.02861756
-0.88225,-0.030654491
-0.882,-0.027599094
-0.88175,-0.030315003
-0.8815,-0.026580629
-0.88125,-0.028957048
-0.881,-0.027259606
-0.88075,-0.030315003
-0.8805,-0.02861756
-0.88025,-0.033709888
-0.88,-0.034728353
-0.87975,-0.039820681
-0.8795,-0.038462727
-0.87925,-0.041857613
-0.879,-0.039820681
-0.87875,-0.042876078
-0.8785,-0.04016017
-0.87825,-0.041178636
-0.878,-0.037444262
-0.87775,-0.038802216
-0.8775,-0.036425796
-0.87725,-0.039481193
-0.877,-0.037104773
-0.87675,-0.038802216
-0.8765,-0.035407331
-0.87625,-0.035067842
-0.876,-0.029975514
-0.87575,-0.029975514
-0.8755,-0.028278071
-0.87525,-0.027599094
-0.875,-0.022506766
-0.87475,-0.022506766
-0.8745,-0.018432904
-0.87425,-0.018093415
-0.874,-0.014359042
-0.87375,-0.013680065
-0.8735,-0.010624668
-0.87325,-0.011982622
-0.873,-0.006211317
-0.87275,-0.004853363
-0.8725,0.000578454
-0.87225,-0.002137455
-0.872,-0.0007795
-0.87175,-0.003495409
-0.8715,-0.001118989
-0.87125,-0.003495409
-0.871,-0.002476943
-0.87075,-0.005192851
-0.8705,-0.004174386
-0.87025,-0.00553234
-0.87,-0.002476943
-0.86975,-0.002137455
-0.8695,-0.000440012
-0.86925,-0.001458477
-0.869,-0.001458477
-0.86875,-0.002137455
-0.8685,-0.0007795
-0.86825,-0.002816432
-0.868,-0.003834897
-0.86775,-0.005192851
-0.8675,-0.006550805
-0.86725,-0.008248248
-0.867,-0.009606202
-0.86675,-0.010285179
-0.8665,-0.011643133
-0.86625,-0.010624668
-0.866,-0.010624668
-0.86575,-0.009945691
-0.8655,-0.011643133
-0.86525,-0.011303645
-0.865,-0.013340576
-0.86475,-0.013001088
-0.8645,-0.01469853
-0.86425,-0.015038019
-0.864,-0.016735461
-0.86375,-0.016056484
-0.8635,-0.016735461
-0.86325,-0.017414438
-0.863,-0.020469835
-0.86275,-0.023185743
-0.8625,-0.028278071
-0.86225,-0.031672957
-0.862,-0.035746819
-0.86175,-0.038123239
-0.8615,-0.040499658
-0.86125,-0.039481193
-0.861,-0.040839147
-0.86075,-0.038802216
-0.8605,-0.039820681
-0.86025,-0.039820681
-0.86,-0.044573521
-0.85975,-0.044913009
-0.8595,-0.047628918
-0.85925,-0.046270964
-0.859,-0.050005337
-0.85875,-0.050344826
-0.8585,-0.0540792
-0.85825,-0.05170278
-0.858,-0.052042269
-0.85775,-0.046270964
-0.8575,-0.046270964
-0.85725,-0.04016017
-0.857,-0.041518124
-0.85675,-0.036765285
-0.8565,-0.038462727
-0.85625,-0.033709888
-0.856,-0.034728353
-0.85575,-0.029975514
-0.8555,-0.032012445
-0.85525,-0.027938583
-0.855,-0.03099398
-0.85475,-0.026580629
-0.8545,-0.02861756
-0.85425,-0.022167278
-0.854,-0.022167278
-0.85375,-0.015038019
-0.8535,-0.015377507
-0.85325,-0.010964156
-0.853,-0.01469853
-0.85275,-0.013340576
-0.8525,-0.018093415
-0.85225,-0.015716996
-0.852,-0.020469835
-0.85175,-0.013340576
-0.8515,-0.01469853
-0.85125,-0.009606202
-0.851,-0.010964156
-0.85075,-0.006890294
-0.8505,-0.00790876
-0.85025,-0.002476943
-0.85,-0.006890294
-0.84975,-0.002816432
-0.8495,-0.006550805
-0.84925,-0.004513874
-0.849,-0.010964156
-0.84875,-0.010285179
-0.8485,-0.016056484
-0.84825,-0.01469853
-0.848,-0.018432904
-0.84775,-0.015716996
-0.8475,-0.01707495
-0.84725,-0.010285179
-0.847,-0.009945691
-0.84675,-0.004174386
-0.8465,-0.006890294
-0.84625,-0.005192851
-0.846,-0.00790876
-0.84575,-0.00553234
-0.8455,-0.007569271
-0.84525,-0.003834897
-0.845,-0.006890294
-0.84475,-0.005871828
-0.8445,-0.009945691
-0.84425,-0.008927225
-0.844,-0.011303645
-0.84375,-0.010285179
-0.8435,-0.011982622
-0.84325,-0.011643133
-0.843,-0.015038019
-0.84275,-0.015377507
-0.8425,-0.01945137
-0.84225,-0.020130347
-0.842,-0.023525232
-0.84175,-0.02386472
-0.8415,-0.024543698
-0.84125,-0.023185743
-0.841,-0.024204209
-0.84075,-0.022846255
-0.8405,-0.025222675
-0.84025,-0.026920117
-0.84,-0.03099398
-0.83975,-0.032351934
-0.8395,-0.033709888
-0.83925,-0.032351934
-0.839,-0.032691422
-0.83875,-0.032351934
-0.8385,-0.032691422
-0.83825,-0.033030911
-0.838,-0.032351934
-0.83775,-0.032012445
-0.8375,-0.031672957
-0.83725,-0.031333468
-0.837,-0.03099398
-0.83675,-0.030654491
-0.8365,-0.027599094
-0.83625,-0.024883186
-0.836,-0.018772393
-0.83575,-0.016056484
-0.8355,-0.011982622
-0.83525,-0.010964156
-0.835,-0.00790876
-0.83475,-0.008248248
-0.8345,-0.00553234
-0.83425,-0.004513874
-0.834,-0.001458477
-0.83375,-0.001797966
-0.8335,0.001257431
-0.83325,0.000578454
-0.833,0.004991805
-0.83275,0.003973339
-0.8325,0.007707713
-0.83225,0.007028736
-0.832,0.011781575
-0.83175,0.011781575
-0.8315,0.017213392
-0.83125,0.015515949
-0.831,0.016873903
-0.83075,0.011442087
-0.8305,0.009405156
-0.83025,0.00363385
-0.83,0.004991805
-0.82975,0.004312828
-0.8295,0.008047201
-0.82925,0.005670782
-0.829,0.007707713
-0.82875,0.005331293
-0.8285,0.00601027
-0.82825,0.00601027
-0.828,0.008047201
-0.82775,0.004312828
-0.8275,0.005670782
-0.82725,0.002615385
-0.827,0.005670782
-0.82675,0.003294362
-0.8265,0.004991805
-0.82625,0.005670782
-0.826,0.009744644
-0.82575,0.010423621
-0.8255,0.010423621
-0.82525,0.00601027
-0.825,0.00601027
-0.82475,0.001596919
-0.8245,0.000578454
-0.82425,-0.004174386
-0.824,-0.004513874
-0.82375,-0.008248248
-0.8235,-0.006211317
-0.82325,-0.009266714
-0.823,-0.008927225
-0.82275,-0.012661599
-0.8225,-0.012661599
-0.82225,-0.016056484
-0.822,-0.014359042
-0.82175,-0.017414438
-0.8215,-0.015038019
-0.82125,-0.016395973
-0.821,-0.015377507
-0.82075,-0.01707495
-0.8205,-0.016735461
-0.82025,-0.020469835
-0.82,-0.02386472
-0.81975,-0.02861756
-0.8195,-0.029296537
-0.81925,-0.032012445
-0.819,-0.032012445
-0.81875,-0.034388865
-0.8185,-0.034049376
-0.81825,-0.035067842
-0.818,-0.034388865
-0.81775,-0.034388865
-0.8175,-0.034728353
-0.81725,-0.036086308
-0.817,-0.038123239
-0.81675,-0.03778375
-0.8165,-0.035746819
-0.81625,-0.032351934
-0.816,-0.029636026
-0.81575,-0.025562163
-0.8155,-0.023185743
-0.81525,-0.019790858
-0.815,-0.018772393
-0.81475,-0.016395973
-0.8145,-0.016395973
-0.81425,-0.01469853
-0.814,-0.016395973
-0.81375,-0.014359042
-0.8135,-0.015716996
-0.81325,-0.013340576
-0.813,-0.013001088
-0.81275,-0.010285179
-0.8125,-0.008587737
-0.81225,-0.006550805
-0.812,-0.007229782
-0.81175,-0.005871828
-0.8115,-0.006890294
-0.81125,-0.00553234
-0.811,-0.006890294
-0.81075,-0.00553234
-0.8105,-0.00553234
-0.81025,-0.001797966
-0.81,-0.002816432
-0.80975,-0.000440012
-0.8095,-0.004513874
-0.80925,-0.004513874
-0.809,-0.009606202
-0.80875,-0.007569271
-0.8085,-0.010624668
-0.80825,-0.006890294
-0.808,-0.009606202
-0.80775,-0.007569271
-0.8075,-0.011982622
-0.80725,-0.009266714
-0.807,-0.01232211
-0.80675,-0.010624668
-0.8065,-0.010964156
-0.80625,-0.006211317
-0.806,-0.007229782
-0.80575,-0.003495409
-0.8055,-0.006890294
-0.80525,-0.003834897
-0.805,-0.010964156
-0.80475,-0.008927225
-0.8045,-0.01469853
-0.80425,-0.008927225
-0.804,-0.013680065
-0.80375,-0.011982622
-0.8035,-0.016735461
-0.80325,-0.015716996
-0.803,-0.020809324
-0.80275,-0.019790858
-0.8025,-0.025562163
-0.80225,-0.024543698
-0.802,-0.029636026
-0.80175,-0.029296537
-0.8015,-0.034049376
-0.80125,-0.032691422
-0.801,-0.036765285
-0.80075,-0.035067842
-0.8005,-0.039481193
-0.80025,-0.038123239
-0.8,-0.044573521
-0.79975,-0.042197101
-0.7995,-0.044913009
-0.79925,-0.039481193
-0.799,-0.040839147
-0.79875,-0.03778375
-0.7985,-0.042197101
-0.79825,-0.039820681
-0.798,-0.042876078
-0.79775,-0.038802216
-0.7975,-0.040839147
-0.79725,-0.036765285
-0.797,-0.039141704
-0.79675,-0.033709888
-0.7965,-0.033709888
-0.79625,-0.027599094
-0.796,-0.027259606
-0.79575,-0.024204209
-0.7955,-0.02624114
-0.79525,-0.024204209
-0.795,-0.026920117
-0.79475,-0.02386472
-0.7945,-0.023525232
-0.79425,-0.01945137
-0.794,-0.021148812
-0.79375,-0.018432904
-0.7935,-0.020469835
-0.79325,-0.018093415
-0.793,-0.018093415
-0.79275,-0.016395973
-0.7925,-0.016056484
-0.79225,-0.014359042
-0.792,-0.014019553
-0.79175,-0.011303645
-0.7915,-0.011303645
-0.79125,-0.010285179
-0.791,-0.011303645
-0.79075,-0.011982622
-0.7905,-0.015038019
-0.79025,-0.015377507
-0.79,-0.015716996
-0.78975,-0.012661599
-0.7895,-0.013001088
-0.78925,-0.013680065
-0.789,-0.016056484
-0.78875,-0.015716996
-0.7885,-0.01469853
-0.78825,-0.013340576
-0.788,-0.013340576
-0.78775,-0.01469853
-0.7875,-0.01469853
-0.78725,-0.014019553
-0.787,-0.012661599
-0.78675,-0.011303645
-0.7865,-0.009606202
-0.78625,-0.008248248
-0.786,-0.004513874
-0.78575,-0.005192851
-0.7855,-0.004174386
-0.78525,-0.005192851
-0.785,-0.00553234
-0.78475,-0.009266714
-0.7845,-0.009606202
-0.78425,-0.011982622
-0.784,-0.013340576
-0.78375,-0.017414438
-0.7835,-0.016056484
-0.78325,-0.019790858
-0.783,-0.019790858
-0.78275,-0.024543698
-0.7825,-0.026580629
-0.78225,-0.033370399
-0.782,-0.038462727
-0.78175,-0.045931475
-0.7815,-0.046949941
-0.78125,-0.048986872
-0.781,-0.047968406
-0.78075,-0.051363291
-0.7805,-0.050684314
-0.78025,-0.055776642
-0.78,-0.056795108
-0.77975,-0.059511016
-0.7795,-0.055437154
-0.77925,-0.053739711
-0.779,-0.047968406
-0.77875,-0.047968406
-0.7785,-0.044573521
-0.77825,-0.046949941
-0.778,-0.045252498
-0.77775,-0.046610452
-0.7775,-0.044573521
-0.77725,-0.048307895
-0.777,-0.047968406
-0.77675,-0.050344826
-0.7765,-0.047628918
-0.77625,-0.047289429
-0.776,-0.041857613
-0.77575,-0.039141704
-0.7755,-0.032351934
-0.77525,-0.029636026
-0.775,-0.023185743
-0.77475,-0.020809324
-0.7745,-0.016395973
-0.77425,-0.015377507
-0.774,-0.013680065
-0.77375,-0.016056484
-0.7735,-0.014359042
-0.77325,-0.016056484
-0.773,-0.013001088
-0.77275,-0.01469853
-0.7725,-0.010964156
-0.77225,-0.010624668
-0.772,-0.006890294
-0.77175,-0.007229782
-0.7715,-0.004174386
-0.77125,-0.005192851
-0.771,-0.002816432
-0.77075,-0.004513874
-0.7705,-0.002816432
-0.77025,-0.00315592
-0.77,-0.001118989
-0.76975,-0.001458477
-0.7695,-0.0007795
-0.76925,-0.003495409
-0.769,-0.00553234
-0.76875,-0.009606202
-0.7685,-0.011303645
-0.76825,-0.013001088
-0.768,-0.011982622
-0.76775,-0.010964156
-0.7675,-0.010285179
-0.76725,-0.009945691
-0.767,-0.010964156
-0.76675,-0.011303645
-0.7665,-0.014359042
-0.76625,-0.01469853
-0.766,-0.015377507
-0.76575,-0.01469853
-0.7655,-0.016395973
-0.76525,-0.015038019
-0.765,-0.015377507
-0.76475,-0.015038019
-0.7645,-0.017414438
-0.76425,-0.018093415
-0.764,-0.022846255
-0.76375,-0.024204209
-0.7635,-0.027259606
-0.76325,-0.027938583
-0.763,-0.03099398
-0.76275,-0.032351934
-0.7625,-0.036086308
-0.76225,-0.037104773
-0.762,-0.039820681
-0.76175,-0.040499658
-0.7615,-0.04253659
-0.76125,-0.041518124
-0.761,-0.042876078
-0.76075,-0.043894544
-0.7605,-0.044913009
-0.76025,-0.045931475
-0.76,-0.051363291
-0.75975,-0.051023803
-0.7595,-0.054418688
-0.75925,-0.052381757
-0.759,-0.055097665
-0.75875,-0.056116131
-0.7585,-0.057813574
-0.75825,-0.053400223
-0.758,-0.050684314
-0.75775,-0.044913009
-0.7575,-0.046270964
-0.75725,-0.04253659
-0.757,-0.045931475
-0.75675,-0.042197101
-0.7565,-0.043215567
-0.75625,-0.036765285
-0.756,-0.036425796
-0.75575,-0.030654491
-0.7555,-0.032012445
-0.75525,-0.026920117
-0.755,-0.030315003
-0.75475,-0.026920117
-0.7545,-0.030315003
-0.75425,-0.02624114
-0.754,-0.029296537
-0.75375,-0.024883186
-0.7535,-0.026580629
-0.75325,-0.021827789
-0.753,-0.023525232
-0.75275,-0.01945137
-0.7525,-0.020130347
-0.75225,-0.015716996
-0.752,-0.01707495
-0.75175,-0.012661599
-0.7515,-0.016056484
-0.75125,-0.013001088
-0.751,-0.016735461
-0.75075,-0.014359042
-0.7505,-0.016735461
-0.75025,-0.012661599
-0.75,-0.015377507
-0.74975,-0.009606202
-0.7495,-0.011982622
-0.74925,-0.008248248
-0.749,-0.01232211
-0.74875,-0.010285179
-0.7485,-0.014019553
-0.74825,-0.011303645
-0.748,-0.014019553
-0.74775,-0.009606202
-0.7475,-0.010964156
-0.74725,-0.006550805
-0.747,-0.009266714
-0.74675,-0.006890294
-0.7465,-0.010624668
-0.74625,-0.007569271
-0.746,-0.009266714
-0.74575,-0.006890294
-0.7455,-0.010285179
-0.74525,-0.008587737
-0.745,-0.012661599
-0.74475,-0.013680065
-0.7445,-0.020130347
-0.74425,-0.022167278
-0.744,-0.026580629
-0.74375,-0.026920117
-0.7435,-0.029975514
-0.74325,-0.029975514
-0.743,-0.031672957
-0.74275,-0.032012445
-0.7425,-0.034388865
-0.74225,-0.035746819
-0.742,-0.039141704
-0.74175,-0.042197101
-0.7415,-0.045591986
-0.74125,-0.046949941
-0.741,-0.048986872
-0.74075,-0.048647383
-0.7405,-0.04932636
-0.74025,-0.049665849
-0.74,-0.053060734
-0.73975,-0.053060734
-0.7395,-0.053400223
-0.73925,-0.050684314
-0.739,-0.050684314
-0.73875,-0.05170278
-0.7385,-0.05170278
-0.73825,-0.051023803
-0.738,-0.049665849
-0.73775,-0.050005337
-0.7375,-0.052042269
-0.73725,-0.051023803
-0.737,-0.051023803
-0.73675,-0.051363291
-0.7365,-0.049665849
-0.73625,-0.048307895
-0.736,-0.044913009
-0.73575,-0.045252498
-0.7355,-0.043215567
-0.73525,-0.041518124
-0.735,-0.036425796
-0.73475,-0.033370399
-0.7345,-0.030654491
-0.73425,-0.030315003
-0.734,-0.02624114
-0.73375,-0.026580629
-0.7335,-0.022506766
-0.73325,-0.022167278
-0.733,-0.018093415
-0.73275,-0.018093415
-0.7325,-0.012661599
-0.73225,-0.010624668
-0.732,-0.003834897
-0.73175,-0.002816432
-0.7315,0.002275896
-0.73125,0.000238965
-0.731,0.001936408
-0.73075,-0.001797966
-0.7305,-0.000100523
-0.73025,-0.002137455
-0.73,0.001257431
-0.72975,0.001257431
-0.7295,0.003973339
-0.72925,0.000238965
-0.729,0.000238965
-0.72875,-0.002816432
-0.7285,-0.0007795
-0.72825,-0.00315592
-0.728,-0.002137455
-0.72775,-0.006550805
-0.7275,-0.007229782
-0.72725,-0.011982622
-0.727,-0.01232211
-0.72675,-0.016735461
-0.7265,-0.016735461
-0.72625,-0.017753927
-0.726,-0.013340576
-0.72575,-0.013680065
-0.7255,-0.010964156
-0.72525,-0.010624668
-0.725,-0.006550805
-0.72475,-0.005871828
-0.7245,-0.002816432
-0.72425,-0.005871828
-0.724,-0.007229782
-0.72375,-0.013001088
-0.7235,-0.015716996
-0.72325,-0.021148812
-0.723,-0.022167278
-0.72275,-0.025901652
-0.7225,-0.02386472
-0.72225,-0.024204209
-0.722,-0.020809324
-0.72175,-0.022167278
-0.7215,-0.020469835
-0.72125,-0.023525232
-0.721,-0.024883186
-0.72075,-0.030654491
-0.7205,-0.033370399
-0.72025,-0.039141704
-0.72,-0.04253659
-0.71975,-0.044234032
-0.7195,-0.039820681
-0.71925,-0.034388865
-0.719,-0.029296537
-0.71875,-0.027938583
-0.7185,-0.027259606
-0.71825,-0.02861756
-0.718,-0.029636026
-0.71775,-0.030315003
-0.7175,-0.03099398
-0.71725,-0.031672957
-0.717,-0.033370399
-0.71675,-0.032012445
-0.7165,-0.030654491
-0.71625,-0.027599094
-0.716,-0.025562163
-0.71575,-0.022846255
-0.7155,-0.022167278
-0.71525,-0.020469835
-0.715,-0.01945137
-0.71475,-0.017753927
-0.7145,-0.018432904
-0.71425,-0.016056484
-0.714,-0.015377507
-0.71375,-0.011982622
-0.7135,-0.01232211
-0.71325,-0.009266714
-0.713,-0.008587737
-0.71275,-0.00315592
-0.7125,-0.003495409
-0.71225,-0.002137455
-0.712,-0.003495409
-0.71175,-0.00315592
-0.7115,-0.004513874
-0.71125,-0.003834897
-0.711,-0.004853363
-0.71075,-0.00315592
-0.7105,-0.004853363
-0.71025,-0.002137455
-0.71,-0.00315592
-0.70975,-0.000100523
-0.7095,-0.004853363
-0.70925,-0.005192851
-0.709,-0.011643133
-0.70875,-0.011643133
-0.7085,-0.014019553
-0.70825,-0.00790876
-0.708,-0.006211317
-0.70775,-0.000100523
-0.7075,0.000917942
-0.70725,0.008047201
-0.707,0.007028736
-0.70675,0.013139529
-0.7065,0.01076311
-0.70625,0.015515949
-0.706,0.014497483
-0.70575,0.020947766
-0.7055,0.020268788
-0.70525,0.026379582
-0.705,0.024682139
-0.70475,0.028077025
-0.7045,0.025021628
-0.70425,0.028756002
-0.704,0.025361116
-0.70375,0.028416513
-0.7035,0.024342651
-0.70325,0.027058559
-0.703,0.022984697
-0.70275,0.026719071
-0.7025,0.025361116
-0.70225,0.031811399
-0.702,0.032150887
-0.70175,0.038601169
-0.7015,0.039280146
-0.70125,0.046069917
-0.701,0.046409405
-0.70075,0.054896619
-0.7005,0.058970481
-0.70025,0.068815648
-0.7,0.071192068
-0.69975,0.079679281
-0.6995,0.080697747
-0.69925,0.08918496
-0.699,0.089863937
-0.69875,0.097332685
-0.6985,0.100048593
-0.69825,0.109554272
-0.698,0.113967623
-0.69775,0.123473302
-0.6975,0.124831256
-0.69725,0.130942049
-0.697,0.130602561
-0.69675,0.136034377
-0.6965,0.134336935
-0.69625,0.138750286
-0.696,0.138410797
-0.69575,0.142145171
-0.6955,0.141126705
-0.69525,0.144521591
-0.695,0.14248466
-0.69475,0.143163637
-0.6945,0.13773182
-0.69425,0.1353554
-0.694,0.129244607
-0.69375,0.12618921
-0.6935,0.119059951
-0.69325,0.114986089
-0.693,0.112609669
-0.69275,0.109214784
-0.6925,0.105140921
-0.69225,0.10310399
-0.692,0.099709105
-0.69175,0.096993196
-0.6915,0.089863937
-0.69125,0.083753144
-0.691,0.077981839
-0.69075,0.075605419
-0.6905,0.071871045
-0.69025,0.068136671
-0.69,0.064062809
-0.68975,0.062365366
-0.6895,0.057612527
-0.68925,0.053878153
-0.689,0.049125314
-0.68875,0.047767359
-0.6885,0.046069917
-0.68825,0.045051451
-0.688,0.043354009
-0.68775,0.040977589
-0.6875,0.038601169
-0.68725,0.036224749
-0.687,0.035885261
-0.68675,0.034527307
-0.6865,0.036903726
-0.68625,0.038940658
-0.686,0.041317077
-0.68575,0.039959123
-0.6855,0.038601169
-0.68525,0.035885261
-0.685,0.035885261
-0.68475,0.033169353
-0.6845,0.033169353
-0.68425,0.029774467
-0.684,0.029774467
-0.68375,0.025700605
-0.6835,0.025021628
-0.68325,0.018910834
-0.683,0.016873903
-0.68275,0.009744644
-0.6825,0.008047201
-0.68225,0.001596919
-0.682,-0.0007795
-0.68175,-0.00790876
-0.6815,-0.008587737
-0.68125,-0.014359042
-0.681,-0.015377507
-0.68075,-0.021488301
-0.6805,-0.023185743
-0.68025,-0.028957048
-0.68,-0.030315003
-0.67975,-0.034388865
-0.6795,-0.032012445
-0.67925,-0.034388865
-0.679,-0.032691422
-0.67875,-0.036425796
-0.6785,-0.035746819
-0.67825,-0.038123239
-0.678,-0.035407331
-0.67775,-0.036425796
-0.6775,-0.033370399
-0.67725,-0.035407331
-0.677,-0.033370399
-0.67675,-0.035746819
-0.6765,-0.033709888
-0.67625,-0.034728353
-0.676,-0.032691422
-0.67575,-0.032691422
-0.6755,-0.029296537
-0.67525,-0.028957048
-0.675,-0.024883186
-0.67475,-0.024883186
-0.6745,-0.01945137
-0.67425,-0.01707495
-0.674,-0.01232211
-0.67375,-0.013001088
-0.6735,-0.011643133
-0.67325,-0.014019553
-0.673,-0.013001088
-0.67275,-0.016395973
-0.6725,-0.015377507
-0.67225,-0.017753927
-0.672,-0.016056484
-0.67175,-0.017753927
-0.6715,-0.016395973
-0.67125,-0.018772393
-0.671,-0.016735461
-0.67075,-0.015377507
-0.6705,-0.010964156
-0.67025,-0.008248248
-0.67,-0.003834897
-0.66975,-0.002476943
-0.6695,-0.004853363
-0.66925,-0.00790876
-0.669,-0.010964156
-0.66875,-0.01232211
-0.6685,-0.014019553
-0.66825,-0.016735461
-0.668,-0.019790858
-0.66775,-0.022167278
-0.6675,-0.023185743
-0.66725,-0.022506766
-0.667,-0.022506766
-0.66675,-0.022167278
-0.6665,-0.025222675
-0.66625,-0.024883186
-0.666,-0.026580629
-0.66575,-0.02624114
-0.6655,-0.028957048
-0.66525,-0.029636026
-0.665,-0.035746819
-0.66475,-0.040499658
-0.6645,-0.048307895
-0.66425,-0.051023803
-0.664,-0.056455619
-0.66375,-0.056795108
-0.6635,-0.058153062
-0.66325,-0.056795108
-0.663,-0.058153062
-0.66275,-0.056116131
-0.6625,-0.055776642
-0.66225,-0.053400223
-0.662,-0.0540792
-0.66175,-0.052721246
-0.6615,-0.053400223
-0.66125,-0.05170278
-0.661,-0.0540792
-0.66075,-0.053060734
-0.6605,-0.057474085
-0.66025,-0.059171528
-0.66,-0.066300787
-0.65975,-0.066979764
-0.6595,-0.070035161
-0.65925,-0.067998229
-0.659,-0.070714138
-0.65875,-0.068677207
-0.6585,-0.071053626
-0.65825,-0.066979764
-0.658,-0.067319252
-0.65775,-0.061547947
-0.6575,-0.062566413
-0.65725,-0.056455619
-0.657,-0.057813574
-0.65675,-0.052381757
-0.6565,-0.0540792
-0.65625,-0.046949941
-0.656,-0.047968406
-0.65575,-0.042197101
-0.6555,-0.044234032
-0.65525,-0.039481193
-0.655,-0.040839147
-0.65475,-0.035746819
-0.6545,-0.03778375
-0.65425,-0.033030911
-0.654,-0.036086308
-0.65375,-0.032012445
-0.6535,-0.034388865
-0.65325,-0.029975514
-0.653,-0.032012445
-0.65275,-0.027259606
-0.6525,-0.028957048
-0.65225,-0.024543698
-0.652,-0.025562163
-0.65175,-0.021827789
-0.6515,-0.024204209
-0.65125,-0.020469835
-0.651,-0.024204209
-0.65075,-0.022846255
-0.6505,-0.027938583
-0.65025,-0.025222675
-0.65,-0.027938583
-0.64975,-0.021827789
-0.6495,-0.022506766
-0.64925,-0.018772393
-0.649,-0.022167278
-0.64875,-0.017753927
-0.6485,-0.022506766
-0.64825,-0.021488301
-0.648,-0.026920117
-0.64775,-0.02624114
-0.6475,-0.029975514
-0.64725,-0.029296537
-0.647,-0.033030911
-0.64675,-0.028957048
-0.6465,-0.028278071
-0.64625,-0.021488301
-0.646,-0.021148812
-0.64575,-0.01707495
-0.6455,-0.019111881
-0.64525,-0.016735461
-0.645,-0.019790858
-0.64475,-0.019111881
-0.6445,-0.023525232
-0.64425,-0.023525232
-0.644,-0.026920117
-0.64375,-0.027259606
-0.6435,-0.031672957
-0.64325,-0.035067842
-0.643,-0.040839147
-0.64275,-0.044573521
-0.6425,-0.048307895
-0.64225,-0.050684314
-0.642,-0.054418688
-0.64175,-0.055776642
-0.6415,-0.056116131
-0.64125,-0.055097665
-0.641,-0.056116131
-0.64075,-0.055776642
-0.6405,-0.057474085
-0.64025,-0.059171528
-0.64,-0.063924367
-0.63975,-0.065282321
-0.6395,-0.066640275
-0.63925,-0.065961298
-0.639,-0.066300787
-0.63875,-0.066979764
-0.6385,-0.066640275
-0.63825,-0.065961298
-0.638,-0.063924367
-0.63775,-0.062566413
-0.6375,-0.061208459
-0.63725,-0.060529482
-0.637,-0.059171528
-0.63675,-0.058492551
-0.6365,-0.054758177
-0.63625,-0.052381757
-0.636,-0.047289429
-0.63575,-0.045931475
-0.6355,-0.042197101
-0.63525,-0.041857613
-0.635,-0.039141704
-0.63475,-0.039481193
-0.6345,-0.036425796
-0.63425,-0.037444262
-0.634,-0.034388865
-0.63375,-0.035746819
-0.6335,-0.034049376
-0.63325,-0.035407331
-0.633,-0.033030911
-0.63275,-0.033709888
-0.6325,-0.029636026
-0.63225,-0.031333468
-0.632,-0.028278071
-0.63175,-0.031333468
-0.6315,-0.029636026
-0.63125,-0.031672957
-0.631,-0.028957048
-0.63075,-0.03099398
-0.6305,-0.026580629
-0.63025,-0.026580629
-0.63,-0.021827789
-0.62975,-0.022167278
-0.6295,-0.020130347
-0.62925,-0.022846255
-0.629,-0.022506766
-0.62875,-0.025562163
-0.6285,-0.02386472
-0.62825,-0.027259606
-0.628,-0.027259606
-0.62775,-0.032012445
-0.6275,-0.031333468
-0.62725,-0.034728353
-0.627,-0.034388865
-0.62675,-0.036425796
-0.6265,-0.035067842
-0.62625,-0.034388865
-0.626,-0.032351934
-0.62575,-0.029636026
-0.6255,-0.02624114
-0.62525,-0.026580629
-0.625,-0.02624114
-0.62475,-0.029636026
-0.6245,-0.029296537
-0.62425,-0.033370399
-0.624,-0.034728353
-0.62375,-0.039141704
-0.6235,-0.038123239
-0.62325,-0.04016017
-0.623,-0.039141704
-0.62275,-0.040499658
-0.6225,-0.039820681
-0.62225,-0.04253659
-0.622,-0.041518124
-0.62175,-0.044573521
-0.6215,-0.043215567
-0.62125,-0.045252498
-0.621,-0.043894544
-0.62075,-0.045591986
-0.6205,-0.045931475
-0.62025,-0.04932636
-0.62,-0.051363291
-0.61975,-0.053400223
-0.6195,-0.052381757
-0.61925,-0.052381757
-0.619,-0.05170278
-0.61875,-0.053400223
-0.6185,-0.056116131
-0.61825,-0.058832039
-0.618,-0.060529482
-0.61775,-0.060189993
-0.6175,-0.059850505
-0.61725,-0.057474085
-0.617,-0.057134596
-0.61675,-0.053400223
-0.6165,-0.050344826
-0.61625,-0.044234032
-0.616,-0.039481193
-0.61575,-0.034728353
-0.6155,-0.034049376
-0.61525,-0.031672957
-0.615,-0.032351934
-0.61475,-0.029296537
-0.6145,-0.02861756
-0.61425,-0.024204209
-0.614,-0.022846255
-0.61375,-0.01945137
-0.6135,-0.020130347
-0.61325,-0.018093415
-0.613,-0.01945137
-0.61275,-0.018093415
-0.6125,-0.020130347
-0.61225,-0.018432904
-0.612,-0.01945137
-0.61175,-0.017753927
-0.6115,-0.018432904
-0.61125,-0.015716996
-0.611,-0.016735461
-0.61075,-0.015038019
-0.6105,-0.017414438
-0.61025,-0.016395973
-0.61,-0.017753927
-0.60975,-0.013340576
-0.6095,-0.015716996
-0.60925,-0.013340576
-0.609,-0.017414438
-0.60875,-0.014359042
-0.6085,-0.01707495
-0.60825,-0.013680065
-0.608,-0.01707495
-0.60775,-0.013340576
-0.6075,-0.016056484
-0.60725,-0.01232211
-0.607,-0.015377507
-0.60675,-0.012661599
-0.6065,-0.017414438
-0.60625,-0.01469853
-0.606,-0.018093415
-0.60575,-0.016395973
-0.6055,-0.021148812
-0.60525,-0.018432904
-0.605,-0.022846255
-0.60475,-0.020809324
-0.6045,-0.02624114
-0.60425,-0.023525232
-0.604,-0.028957048
-0.60375,-0.027259606
-0.6035,-0.032691422
-0.60325,-0.033030911
-0.603,-0.040499658
-0.60275,-0.040839147
-0.6025,-0.04932636
-0.60225,-0.050005337
-0.602,-0.058492551
-0.60175,-0.057474085
-0.6015,-0.06086897
-0.60125,-0.057813574
-0.601,-0.059850505
-0.60075,-0.055776642
-0.6005,-0.058492551
-0.60025,-0.056455619
-0.6,-0.065282321
-0.59975,-0.062226924
-0.5995,-0.065282321
-0.59925,-0.057474085
-0.599,-0.060529482
-0.59875,-0.057813574
-0.5985,-0.061887436
-0.59825,-0.059511016
-0.598,-0.061208459
-0.59775,-0.057134596
-0.5975,-0.058492551
-0.59725,-0.053400223
-0.597,-0.055437154
-0.59675,-0.050684314
-0.5965,-0.051023803
-0.59625,-0.045591986
-0.596,-0.045252498
-0.59575,-0.040499658
-0.5955,-0.040839147
-0.59525,-0.036765285
-0.595,-0.03778375
-0.59475,-0.035746819
-0.5945,-0.03778375
-0.59425,-0.035407331
-0.594,-0.035746819
-0.59375,-0.032351934
-0.5935,-0.032351934
-0.59325,-0.029636026
-0.593,-0.028278071
-0.59275,-0.025901652
-0.5925,-0.024883186
-0.59225,-0.023525232
-0.592,-0.023525232
-0.59175,-0.021488301
-0.5915,-0.020809324
-0.59125,-0.019111881
-0.591,-0.018772393
-0.59075,-0.017414438
-0.5905,-0.016395973
-0.59025,-0.015038019
-0.59,-0.01469853
-0.58975,-0.013680065
-0.5895,-0.015377507
-0.58925,-0.016056484
-0.589,-0.017753927
-0.58875,-0.018093415
-0.5885,-0.016735461
-0.58825,-0.016735461
-0.588,-0.016395973
-0.58775,-0.01707495
-0.5875,-0.01707495
-0.58725,-0.018093415
-0.587,-0.018093415
-0.58675,-0.019790858
-0.5865,-0.018432904
-0.58625,-0.017753927
-0.586,-0.014359042
-0.58575,-0.01469853
-0.5855,-0.013340576
-0.58525,-0.015377507
-0.585,-0.015038019
-0.58475,-0.018772393
-0.5845,-0.020469835
-0.58425,-0.025562163
-0.584,-0.026580629
-0.58375,-0.029975514
-0.5835,-0.028278071
-0.58325,-0.031672957
-0.583,-0.032012445
-0.58275,-0.037444262
-0.5825,-0.038802216
-0.58225,-0.043555055
-0.582,-0.042876078
-0.58175,-0.046949941
-0.5815,-0.044573521
-0.58125,-0.047628918
-0.581,-0.044913009
-0.58075,-0.048307895
-0.5805,-0.047289429
-0.58025,-0.052381757
-0.58,-0.053739711
-0.57975,-0.057474085
-0.5795,-0.055776642
-0.57925,-0.057813574
-0.579,-0.055097665
-0.57875,-0.057134596
-0.5785,-0.053739711
-0.57825,-0.055776642
-0.578,-0.051363291
-0.57775,-0.050344826
-0.5775,-0.046270964
-0.57725,-0.045591986
-0.577,-0.042876078
-0.57675,-0.04253659
-0.5765,-0.039141704
-0.57625,-0.039820681
-0.576,-0.036086308
-0.57575,-0.035407331
-0.5755,-0.030654491
-0.57525,-0.032351934
-0.575,-0.030315003
-0.57475,-0.032012445
-0.5745,-0.029296537
-0.57425,-0.029975514
-0.574,-0.027938583
-0.57375,-0.02861756
-0.5735,-0.025562163
-0.57325,-0.025562163
-0.573,-0.022846255
-0.57275,-0.024204209
-0.5725,-0.022167278
-0.57225,-0.022506766
-0.572,-0.018432904
-0.57175,-0.016735461
-0.5715,-0.013001088
-0.57125,-0.012661599
-0.571,-0.011303645
-0.57075,-0.013340576
-0.5705,-0.014019553
-0.57025,-0.015377507
-0.57,-0.014019553
-0.56975,-0.012661599
-0.5695,-0.011643133
-0.56925,-0.011982622
-0.569,-0.013340576
-0.56875,-0.013680065
-0.5685,-0.014359042
-0.56825,-0.015038019
-0.568,-0.017414438
-0.56775,-0.018093415
-0.5675,-0.019790858
-0.56725,-0.020469835
-0.567,-0.022846255
-0.56675,-0.023525232
-0.5665,-0.024204209
-0.56625,-0.021148812
-0.566,-0.021488301
-0.56575,-0.021148812
-0.5655,-0.02386472
-0.56525,-0.022506766
-0.565,-0.024204209
-0.56475,-0.023185743
-0.5645,-0.026920117
-0.56425,-0.026920117
-0.564,-0.03099398
-0.56375,-0.031333468
-0.5635,-0.035746819
-0.56325,-0.036425796
-0.563,-0.039141704
-0.56275,-0.038802216
-0.5625,-0.042197101
-0.56225,-0.04253659
-0.562,-0.047289429
-0.56175,-0.047968406
-0.5615,-0.049665849
-0.56125,-0.047289429
-0.561,-0.047968406
-0.56075,-0.045591986
-0.5605,-0.047628918
-0.56025,-0.048647383
-0.56,-0.054758177
-0.55975,-0.053739711
-0.5595,-0.057474085
-0.55925,-0.054758177
-0.559,-0.058153062
-0.55875,-0.057134596
-0.5585,-0.061547947
-0.55825,-0.059511016
-0.558,-0.062226924
-0.55775,-0.058153062
-0.5575,-0.060189993
-0.55725,-0.0540792
-0.557,-0.054418688
-0.55675,-0.047968406
-0.5565,-0.048986872
-0.55625,-0.042876078
-0.556,-0.045252498
-0.55575,-0.04016017
-0.5555,-0.04253659
-0.55525,-0.039820681
-0.555,-0.040499658
-0.55475,-0.035746819
-0.5545,-0.037444262
-0.55425,-0.031672957
-0.554,-0.034728353
-0.55375,-0.030315003
-0.5535,-0.033370399
-0.55325,-0.029636026
-0.553,-0.030654491
-0.55275,-0.024204209
-0.5525,-0.023185743
-0.55225,-0.016056484
-0.552,-0.01469853
-0.55175,-0.008248248
-0.5515,-0.009945691
-0.55125,-0.006550805
-0.551,-0.009606202
-0.55075,-0.006550805
-0.5505,-0.010285179
-0.55025,-0.007569271
-0.55,-0.011982622
-0.54975,-0.008927225
-0.5495,-0.015377507
-0.54925,-0.013340576
-0.549,-0.018432904
-0.54875,-0.01469853
-0.5485,-0.015716996
-0.54825,-0.010624668
-0.548,-0.01232211
-0.54775,-0.008927225
-0.5475,-0.01232211
-0.54725,-0.011303645
-0.547,-0.016056484
-0.54675,-0.014359042
-0.5465,-0.016735461
-0.54625,-0.013001088
-0.546,-0.013680065
-0.54575,-0.011982622
-0.5455,-0.016395973
-0.54525,-0.016395973
-0.545,-0.020130347
-0.54475,-0.019790858
-0.5445,-0.021827789
-0.54425,-0.020469835
-0.544,-0.022167278
-0.54375,-0.021148812
-0.5435,-0.024543698
-0.54325,-0.025901652
-0.543,-0.029975514
-0.54275,-0.032691422
-0.5425,-0.036086308
-0.54225,-0.038123239
-0.542,-0.042197101
-0.54175,-0.044234032
-0.5415,-0.045931475
-0.54125,-0.046270964
-0.541,-0.047968406
-0.54075,-0.048307895
-0.5405,-0.04932636
-0.54025,-0.050344826
-0.54,-0.0540792
-0.53975,-0.0540792
-0.5395,-0.054758177
-0.53925,-0.0540792
-0.539,-0.054758177
-0.53875,-0.055776642
-0.5385,-0.057134596
-0.53825,-0.057813574
-0.538,-0.057474085
-0.53775,-0.057134596
-0.5375,-0.056116131
-0.53725,-0.055437154
-0.537,-0.054418688
-0.53675,-0.0540792
-0.5365,-0.050684314
-0.53625,-0.047968406
-0.536,-0.043555055
-0.53575,-0.041178636
-0.5355,-0.036765285
-0.53525,-0.035746819
-0.535,-0.032351934
-0.53475,-0.032012445
-0.5345,-0.028278071
-0.53425,-0.02861756
-0.534,-0.025901652
-0.53375,-0.027259606
-0.5335,-0.024543698
-0.53325,-0.025562163
-0.533,-0.022167278
-0.53275,-0.023185743
-0.5325,-0.020130347
-0.53225,-0.021488301
-0.532,-0.017753927
-0.53175,-0.020130347
-0.5315,-0.018093415
-0.53125,-0.019111881
-0.531,-0.016735461
-0.53075,-0.019111881
-0.5305,-0.016735461
-0.53025,-0.018432904
-0.53,-0.015038019
-0.52975,-0.017414438
-0.5295,-0.016056484
-0.52925,-0.019111881
-0.529,-0.015716996
-0.52875,-0.017414438
-0.5285,-0.016056484
-0.52825,-0.020130347
-0.528,-0.021148812
-0.52775,-0.026580629
-0.5275,-0.027259606
-0.52725,-0.03099398
-0.527,-0.030315003
-0.52675,-0.033030911
-0.5265,-0.031672957
-0.52625,-0.031333468
-0.526,-0.027938583
-0.52575,-0.028957048
-0.5255,-0.027599094
-0.52525,-0.02861756
-0.525,-0.027938583
-0.52475,-0.030654491
-0.5245,-0.03099398
-0.52425,-0.033709888
-0.524,-0.033370399
-0.52375,-0.034728353
-0.5235,-0.033709888
-0.52325,-0.036425796
-0.523,-0.037444262
-0.52275,-0.04253659
-0.5225,-0.043555055
-0.52225,-0.046610452
-0.522,-0.047628918
-0.52175,-0.051023803
-0.5215,-0.050344826
-0.52125,-0.052042269
-0.521,-0.050684314
-0.52075,-0.05170278
-0.5205,-0.050684314
-0.52025,-0.052381757
-0.52,-0.0540792
-0.51975,-0.055437154
-0.5195,-0.055776642
-0.51925,-0.056116131
-0.519,-0.057134596
-0.51875,-0.058153062
-0.5185,-0.058153062
-0.51825,-0.056455619
-0.518,-0.054758177
-0.51775,-0.052721246
-0.5175,-0.052042269
-0.51725,-0.050005337
-0.517,-0.051363291
-0.51675,-0.050005337
-0.5165,-0.050005337
-0.51625,-0.046949941
-0.516,-0.045931475
-0.51575,-0.041857613
-0.5155,-0.040499658
-0.51525,-0.036765285
-0.515,-0.036425796
-0.51475,-0.033370399
-0.5145,-0.034388865
-0.51425,-0.031333468
-0.514,-0.032691422
-0.51375,-0.030315003
-0.5135,-0.03099398
-0.51325,-0.028278071
-0.513,-0.027938583
-0.51275,-0.023185743
-0.5125,-0.020809324
-0.51225,-0.015716996
-0.512,-0.01469853
-0.51175,-0.011643133
-0.5115,-0.013680065
-0.51125,-0.012661599
-0.511,-0.015038019
-0.51075,-0.013340576
-0.5105,-0.015716996
-0.51025,-0.013340576
-0.51,-0.015377507
-0.50975,-0.011982622
-0.5095,-0.015038019
-0.50925,-0.013340576
-0.509,-0.01707495
-0.50875,-0.01469853
-0.5085,-0.018432904
-0.50825,-0.015716996
-0.508,-0.020130347
-0.50775,-0.019790858
-0.5075,-0.022506766
-0.50725,-0.01945137
-0.507,-0.023525232
-0.50675,-0.020469835
-0.5065,-0.02386472
-0.50625,-0.019111881
-0.506,-0.024204209
-0.50575,-0.020469835
-0.5055,-0.024883186
-0.50525,-0.019111881
-0.505,-0.02386472
-0.50475,-0.021827789
-0.5045,-0.028278071
-0.50425,-0.027599094
-0.504,-0.034388865
-0.50375,-0.034388865
-0.5035,-0.041178636
-0.50325,-0.041178636
-0.503,-0.048307895
-0.50275,-0.047968406
-0.5025,-0.055437154
-0.50225,-0.056116131
-0.502,-0.063584879
-0.50175,-0.064942833
-0.5015,-0.069016695
-0.50125,-0.065282321
-0.501,-0.066979764
-0.50075,-0.061547947
-0.5005,-0.063584879
-0.50025,-0.060529482
-0.5,-0.066640275
-0.49975,-0.064603344
-0.4995,-0.068337718
-0.49925,-0.064263856
-0.499,-0.066979764
-0.49875,-0.06324539
-0.4985,-0.064603344
-0.49825,-0.058153062
-0.498,-0.058492551
-0.49775,-0.053060734
-0.4975,-0.0540792
-0.49725,-0.04932636
-0.497,-0.051023803
-0.49675,-0.046949941
-0.4965,-0.048307895
-0.49625,-0.044234032
-0.496,-0.043555055
-0.49575,-0.039481193
-0.4955,-0.039820681
-0.49525,-0.035746819
-0.495,-0.036086308
-0.49475,-0.032691422
-0.4945,-0.033709888
-0.49425,-0.031333468
-0.494,-0.033370399
-0.49375,-0.032012445
-0.4935,-0.033030911
-0.49325,-0.031333468
-0.493,-0.031672957
-0.49275,-0.029636026
-0.4925,-0.029296537
-0.49225,-0.028278071
-0.492,-0.02861756
-0.49175,-0.027938583
-0.4915,-0.02861756
-0.49125,-0.028278071
-0.491,-0.028957048
-0.49075,-0.02861756
-0.4905,-0.027938583
-0.49025,-0.025901652
-0.49,-0.024883186
-0.48975,-0.023525232
-0.4895,-0.025562163
-0.48925,-0.026580629
-0.489,-0.028278071
-0.48875,-0.029636026
-0.4885,-0.029975514
-0.48825,-0.029636026
-0.488,-0.027599094
-0.48775,-0.02624114
-0.4875,-0.024883186
-0.48725,-0.02386472
-0.487,-0.020809324
-0.48675,-0.020130347
-0.4865,-0.015716996
-0.48625,-0.01232211
-0.486,-0.00790876
-0.48575,-0.010285179
-0.4855,-0.010285179
-0.48525,-0.013001088
-0.485,-0.01232211
-0.48475,-0.013680065
-0.4845,-0.01232211
-0.48425,-0.015038019
-0.484,-0.014359042
-0.48375,-0.018772393
-0.4835,-0.021148812
-0.48325,-0.025562163
-0.483,-0.027599094
-0.48275,-0.034388865
-0.4825,-0.037444262
-0.48225,-0.044913009
-0.482,-0.046610452
-0.48175,-0.052721246
-0.4815,-0.055776642
-0.48125,-0.059850505
-0.481,-0.058832039
-0.48075,-0.059171528
-0.4805,-0.058153062
-0.48025,-0.061887436
-0.48,-0.061208459
-0.47975,-0.06324539
-0.4795,-0.061208459
-0.47925,-0.06324539
-0.479,-0.06086897
-0.47875,-0.062226924
-0.4785,-0.057813574
-0.47825,-0.055776642
-0.478,-0.048986872
-0.47775,-0.046949941
-0.4775,-0.041518124
-0.47725,-0.040839147
-0.477,-0.038123239
-0.47675,-0.03778375
-0.4765,-0.034049376
-0.47625,-0.033709888
-0.476,-0.03099398
-0.47575,-0.031672957
-0.4755,-0.028957048
-0.47525,-0.029636026
-0.475,-0.027599094
-0.47475,-0.027938583
-0.4745,-0.025222675
-0.47425,-0.02386472
-0.474,-0.021148812
-0.47375,-0.020469835
-0.4735,-0.016735461
-0.47325,-0.016395973
-0.473,-0.012661599
-0.47275,-0.012661599
-0.4725,-0.009266714
-0.47225,-0.008927225
-0.472,-0.006550805
-0.47175,-0.00790876
-0.4715,-0.00790876
-0.47125,-0.010624668
-0.471,-0.011643133
-0.47075,-0.01469853
-0.4705,-0.01469853
-0.47025,-0.014359042
-0.47,-0.012661599
-0.46975,-0.010964156
-0.4695,-0.009945691
-0.46925,-0.009606202
-0.469,-0.010285179
-0.46875,-0.009945691
-0.4685,-0.010964156
-0.46825,-0.011643133
-0.468,-0.014019553
-0.46775,-0.015716996
-0.4675,-0.018093415
-0.46725,-0.018093415
-0.467,-0.019790858
-0.46675,-0.019790858
-0.4665,-0.022846255
-0.46625,-0.022846255
-0.466,-0.026580629
-0.46575,-0.027259606
-0.4655,-0.030654491
-0.46525,-0.029636026
-0.465,-0.031333468
-0.46475,-0.029636026
-0.4645,-0.03099398
-0.46425,-0.027599094
-0.464,-0.028278071
-0.46375,-0.024204209
-0.4635,-0.024204209
-0.46325,-0.022167278
-0.463,-0.024883186
-0.46275,-0.024543698
-0.4625,-0.02861756
-0.46225,-0.028278071
-0.462,-0.032012445
-0.46175,-0.031333468
-0.4615,-0.033370399
-0.46125,-0.031672957
-0.461,-0.034388865
-0.46075,-0.032351934
-0.4605,-0.035746819
-0.46025,-0.036086308
-0.46,-0.04253659
-0.45975,-0.040839147
-0.4595,-0.043894544
-0.45925,-0.042197101
-0.459,-0.043215567
-0.45875,-0.039820681
-0.4585,-0.042197101
-0.45825,-0.038123239
-0.458,-0.039820681
-0.45775,-0.035746819
-0.4575,-0.038462727
-0.45725,-0.035407331
-0.457,-0.04016017
-0.45675,-0.034728353
-0.4565,-0.035407331
-0.45625,-0.027259606
-0.456,-0.027599094
-0.45575,-0.020469835
-0.4555,-0.020809324
-0.45525,-0.015038019
-0.455,-0.016395973
-0.45475,-0.011982622
-0.4545,-0.015716996
-0.45425,-0.011982622
-0.454,-0.016395973
-0.45375,-0.01232211
-0.4535,-0.015038019
-0.45325,-0.008587737
-0.453,-0.007569271
-0.45275,-0.0007795
-0.4525,-0.002137455
-0.45225,0.001936408
-0.452,-0.001118989
-0.45175,0.001596919
-0.4515,-0.002816432
-0.45125,-0.000100523
-0.451,-0.004513874
-0.45075,-0.001118989
-0.4505,-0.003834897
-0.45025,0.002615385
-0.45,0.003294362
-0.44975,0.010423621
-0.4495,0.00838669
-0.44925,0.013139529
-0.449,0.010084133
-0.44875,0.013818506
-0.4485,0.011102598
-0.44825,0.014497483
-0.448,0.010423621
-0.44775,0.012800041
-0.4475,0.008047201
-0.44725,0.010423621
-0.447,0.00601027
-0.44675,0.00601027
-0.4465,0.001596919
-0.44625,0.003294362
-0.446,0.000238965
-0.44575,0.001936408
-0.4455,0.000238965
-0.44525,0.002615385
-0.445,0.000917942
-0.44475,0.001936408
-0.4445,-0.002137455
-0.44425,-0.002137455
-0.444,-0.004853363
-0.44375,-0.005871828
-0.4435,-0.009945691
-0.44325,-0.011982622
-0.443,-0.015716996
-0.44275,-0.01707495
-0.4425,-0.020130347
-0.44225,-0.022167278
-0.442,-0.025901652
-0.44175,-0.026920117
-0.4415,-0.027599094
-0.44125,-0.027259606
-0.441,-0.026920117
-0.44075,-0.025901652
-0.4405,-0.026920117
-0.44025,-0.029296537
-0.44,-0.033030911
-0.43975,-0.034388865
-0.4395,-0.035067842
-0.43925,-0.034728353
-0.439,-0.034728353
-0.43875,-0.035067842
-0.4385,-0.033709888
-0.43825,-0.031672957
-0.438,-0.028957048
-0.43775,-0.026580629
-0.4375,-0.023525232
-0.43725,-0.021827789
-0.437,-0.019790858
-0.43675,-0.019111881
-0.4365,-0.01469853
-0.43625,-0.012661599
-0.436,-0.008587737
-0.43575,-0.00790876
-0.4355,-0.004853363
-0.43525,-0.00553234
-0.435,-0.002137455
-0.43475,-0.003495409
-0.4345,-0.000100523
-0.43425,-0.0007795
-0.434,0.002954873
-0.43375,0.002954873
-0.4335,0.006689247
-0.43325,0.00601027
-0.433,0.010084133
-0.43275,0.00838669
-0.4325,0.011781575
-0.43225,0.010423621
-0.432,0.014157995
-0.43175,0.012800041
-0.4315,0.015176461
-0.43125,0.013139529
-0.431,0.015515949
-0.43075,0.012460552
-0.4305,0.014497483
-0.43025,0.012800041
-0.43,0.016873903
-0.42975,0.015855438
-0.4295,0.016873903
-0.42925,0.014497483
-0.429,0.015855438
-0.42875,0.013818506
-0.4285,0.016873903
-0.42825,0.015855438
-0.428,0.017213392
-0.42775,0.013818506
-0.4275,0.01755288
-0.42725,0.016194926
-0.427,0.01755288
-0.42675,0.014157995
-0.4265,0.014157995
-0.42625,0.013479018
-0.426,0.015515949
-0.42575,0.011442087
-0.4255,0.011781575
-0.42525,0.009065667
-0.425,0.01076311
-0.42475,0.007028736
-0.4245,0.004652316
-0.42425,0.000238965
-0.424,-0.001797966
-0.42375,-0.006550805
-0.4235,-0.008587737
-0.42325,-0.01232211
-0.423,-0.013001088
-0.42275,-0.015038019
-0.4225,-0.01469853
-0.42225,-0.015377507
-0.422,-0.015038019
-0.42175,-0.017414438
-0.4215,-0.016735461
-0.42125,-0.018432904
-0.421,-0.018432904
-0.42075,-0.019790858
-0.4205,-0.020469835
-0.42025,-0.02386472
-0.42,-0.026920117
-0.41975,-0.029636026
-0.4195,-0.031333468
-0.41925,-0.032012445
-0.419,-0.033030911
-0.41875,-0.032351934
-0.4185,-0.032351934
-0.41825,-0.030654491
-0.418,-0.030654491
-0.41775,-0.027599094
-0.4175,-0.026580629
-0.41725,-0.023185743
-0.417,-0.022167278
-0.41675,-0.017753927
-0.4165,-0.01469853
-0.41625,-0.008248248
-0.416,-0.005871828
-0.41575,0.000238965
-0.4155,0.003294362
-0.41525,0.008726178
-0.415,0.008726178
-0.41475,0.009744644
-0.4145,0.008047201
-0.41425,0.01076311
-0.414,0.008726178
-0.41375,0.011781575
-0.4135,0.009744644
-0.41325,0.012121064
-0.413,0.011442087
-0.41275,0.015515949
-0.4125,0.014836972
-0.41225,0.017892369
-0.412,0.016194926
-0.41175,0.018231857
-0.4115,0.014836972
-0.41125,0.016194926
-0.411,0.013139529
-0.41075,0.015176461
-0.4105,0.013479018
-0.41025,0.016873903
-0.41,0.016194926
-0.40975,0.020947766
-0.4095,0.017892369
-0.40925,0.021626743
-0.409,0.0199293
-0.40875,0.023663674
-0.4085,0.020608277
-0.40825,0.024342651
-0.408,0.020268788
-0.40775,0.022984697
-0.4075,0.018571346
-0.40725,0.021966231
-0.407,0.016873903
-0.40675,0.019250323
-0.4065,0.014497483
-0.40625,0.018231857
-0.406,0.013818506
-0.40575,0.015515949
-0.4055,0.010423621
-0.40525,0.013479018
-0.405,0.009405156
-0.40475,0.012121064
-0.4045,0.007028736
-0.40425,0.009405156
-0.404,0.002954873
-0.40375,0.002954873
-0.4035,-0.003495409
-0.40325,-0.003495409
-0.403,-0.009266714
-0.40275,-0.008248248
-0.4025,-0.014019553
-0.40225,-0.01232211
-0.402,-0.018093415
-0.40175,-0.016735461
-0.4015,-0.020809324
-0.40125,-0.01945137
-0.401,-0.02386472
-0.40075,-0.022846255
-0.4005,-0.027938583
-0.40025,-0.027259606
-0.4,-0.032691422
-0.39975,-0.027938583
-0.3995,-0.029296537
-0.39925,-0.023525232
-0.399,-0.026580629
-0.39875,-0.02386472
-0.3985,-0.027599094
-0.39825,-0.024883186
-0.398,-0.029296537
-0.39775,-0.023525232
-0.3975,-0.02624114
-0.39725,-0.021827789
-0.397,-0.022846255
-0.39675,-0.017414438
-0.3965,-0.01707495
-0.39625,-0.01469853
-0.396,-0.014359042
-0.39575,-0.009945691
-0.3955,-0.006890294
-0.39525,-0.003834897
-0.395,-0.003495409
-0.39475,-0.0007795
-0.3945,-0.002137455
-0.39425,-0.000100523
-0.394,-0.001118989
-0.39375,0.000578454
-0.3935,0.001257431
-0.39325,0.00363385
-0.393,0.003294362
-0.39275,0.004312828
-0.3925,0.00363385
-0.39225,0.004652316
-0.392,0.004991805
-0.39175,0.006689247
-0.3915,0.009065667
-0.39125,0.012800041
-0.391,0.016534415
-0.39075,0.020268788
-0.3905,0.023324185
-0.39025,0.027737536
-0.39,0.031132421
-0.38975,0.034527307
-0.3895,0.034866795
-0.38925,0.034187818
-0.389,0.033169353
-0.38875,0.031132421
-0.3885,0.028756002
-0.38825,0.025361116
-0.388,0.023324185
-0.38775,0.020947766
-0.3875,0.0199293
-0.38725,0.018910834
-0.387,0.019589811
-0.38675,0.017892369
-0.3865,0.020268788
-0.38625,0.020947766
-0.386,0.022984697
-0.38575,0.0199293
-0.3855,0.019250323
-0.38525,0.015855438
-0.385,0.015515949
-0.38475,0.012121064
-0.3845,0.011781575
-0.38425,0.008726178
-0.384,0.009065667
-0.38375,0.005670782
-0.3835,0.005331293
-0.38325,0.000238965
-0.383,-0.0007795
-0.38275,-0.006890294
-0.3825,-0.007229782
-0.38225,-0.011643133
-0.382,-0.011982622
-0.38175,-0.016735461
-0.3815,-0.015038019
-0.38125,-0.018432904
-0.381,-0.01707495
-0.38075,-0.01945137
-0.3805,-0.018432904
-0.38025,-0.022167278
-0.38,-0.022506766
-0.37975,-0.024543698
-0.3795,-0.023185743
-0.37925,-0.025901652
-0.379,-0.024883186
-0.37875,-0.02861756
-0.3785,-0.026580629
-0.37825,-0.026920117
-0.378,-0.022846255
-0.37775,-0.022506766
-0.3775,-0.018772393
-0.37725,-0.017414438
-0.377,-0.014019553
-0.37675,-0.013340576
-0.3765,-0.009266714
-0.37625,-0.006890294
-0.376,-0.003495409
-0.37575,-0.002816432
-0.3755,-0.000100523
-0.37525,-0.000440012
-0.375,0.001596919
-0.37475,0.000917942
-0.3745,0.002615385
-0.37425,0.003294362
-0.374,0.005331293
-0.37375,0.004312828
-0.3735,0.005331293
-0.37325,0.007028736
-0.373,0.009405156
-0.37275,0.009405156
-0.3725,0.011442087
-0.37225,0.011102598
-0.372,0.014157995
-0.37175,0.01076311
-0.3715,0.012121064
-0.37125,0.011781575
-0.371,0.015855438
-0.37075,0.015855438
-0.3705,0.016194926
-0.37025,0.016873903
-0.37,0.018910834
-0.36975,0.0199293
-0.3695,0.019250323
-0.36925,0.018910834
-0.369,0.01755288
-0.36875,0.018231857
-0.3685,0.01755288
-0.36825,0.017892369
-0.368,0.015515949
-0.36775,0.015855438
-0.3675,0.013818506
-0.36725,0.014497483
-0.367,0.012121064
-0.36675,0.012460552
-0.3665,0.01076311
-0.36625,0.013818506
-0.366,0.013139529
-0.36575,0.014836972
-0.3655,0.013479018
-0.36525,0.014497483
-0.365,0.011102598
-0.36475,0.010423621
-0.3645,0.005670782
-0.36425,0.005331293
-0.364,0.000578454
-0.36375,0.000917942
-0.3635,-0.001797966
-0.36325,-0.001458477
-0.363,-0.005192851
-0.36275,-0.006211317
-0.3625,-0.011303645
-0.36225,-0.013680065
-0.362,-0.020469835
-0.36175,-0.022167278
-0.3615,-0.026580629
-0.36125,-0.025222675
-0.361,-0.027259606
-0.36075,-0.02386472
-0.3605,-0.025562163
-0.36025,-0.024543698
-0.36,-0.02861756
-0.35975,-0.025562163
-0.3595,-0.027259606
-0.35925,-0.023525232
-0.359,-0.02624114
-0.35875,-0.023525232
-0.3585,-0.025901652
-0.35825,-0.020469835
-0.358,-0.023185743
-0.35775,-0.018093415
-0.3575,-0.021488301
-0.35725,-0.018432904
-0.357,-0.022846255
-0.35675,-0.018432904
-0.3565,-0.019790858
-0.35625,-0.013680065
-0.356,-0.015038019
-0.35575,-0.009266714
-0.3555,-0.010624668
-0.35525,-0.005871828
-0.355,-0.008248248
-0.35475,-0.003834897
-0.3545,-0.006890294
-0.35425,-0.004174386
-0.354,-0.008587737
-0.35375,-0.004853363
-0.3535,-0.004513874
-0.35325,0.003294362
-0.353,0.003973339
-0.35275,0.011442087
-0.3525,0.01076311
-0.35225,0.016194926
-0.352,0.014157995
-0.35175,0.01755288
-0.3515,0.014157995
-0.35125,0.016534415
-0.351,0.010423621
-0.35075,0.011442087
-0.3505,0.006689247
-0.35025,0.00838669
-0.35,0.004652316
-0.34975,0.006689247
-0.3495,0.001596919
-0.34925,0.006689247
-0.349,0.004991805
-0.34875,0.011442087
-0.3485,0.011442087
-0.34825,0.017213392
-0.348,0.015176461
-0.34775,0.016194926
-0.3475,0.01076311
-0.34725,0.011781575
-0.347,0.00838669
-0.34675,0.010423621
-0.3465,0.008047201
-0.34625,0.011781575
-0.346,0.011442087
-0.34575,0.013818506
-0.3455,0.013139529
-0.34525,0.014157995
-0.345,0.01076311
-0.34475,0.010423621
-0.3445,0.006349759
-0.34425,0.004652316
-0.344,-0.0007795
-0.34375,-0.003834897
-0.3435,-0.008587737
-0.34325,-0.011303645
-0.343,-0.015377507
-0.34275,-0.01945137
-0.3425,-0.023185743
-0.34225,-0.024204209
-0.342,-0.025222675
-0.34175,-0.024204209
-0.3415,-0.022506766
-0.34125,-0.01945137
-0.341,-0.017753927
-0.34075,-0.016735461
-0.3405,-0.017753927
-0.34025,-0.019111881
-0.34,-0.020809324
-0.33975,-0.019111881
-0.3395,-0.016735461
-0.33925,-0.014359042
-0.339,-0.013680065
-0.33875,-0.014359042
-0.3385,-0.01469853
-0.33825,-0.016395973
-0.338,-0.018093415
-0.33775,-0.019790858
-0.3375,-0.019111881
-0.33725,-0.018772393
-0.337,-0.015377507
-0.33675,-0.013340576
-0.3365,-0.008248248
-0.33625,-0.005192851
-0.336,-0.001458477
-0.33575,-0.0007795
-0.3355,0.001596919
-0.33525,0.000238965
-0.335,0.002275896
-0.33475,0.001596919
-0.3345,0.005331293
-0.33425,0.006349759
-0.334,0.011102598
-0.33375,0.011442087
-0.3335,0.016194926
-0.33325,0.014157995
-0.333,0.014836972
-0.33275,0.009065667
-0.3325,0.008726178
-0.33225,0.004312828
-0.332,0.006349759
-0.33175,0.005670782
-0.3315,0.010423621
-0.33125,0.011102598
-0.331,0.016194926
-0.33075,0.015855438
-0.3305,0.018910834
-0.33025,0.017892369
-0.33,0.021287254
-0.32975,0.020268788
-0.3295,0.021287254
-0.32925,0.018231857
-0.329,0.018231857
-0.32875,0.015176461
-0.3285,0.015855438
-0.32825,0.013139529
-0.328,0.011781575
-0.32775,0.008047201
-0.3275,0.007368224
-0.32725,0.005670782
-0.327,0.005670782
-0.32675,0.004312828
-0.3265,0.007028736
-0.32625,0.008047201
-0.326,0.01076311
-0.32575,0.013479018
-0.3255,0.016873903
-0.32525,0.018571346
-0.325,0.021626743
-0.32475,0.021287254
-0.3245,0.021287254
-0.32425,0.015176461
-0.324,0.013818506
-0.32375,0.011102598
-0.3235,0.012121064
-0.32325,0.007368224
-0.323,0.004652316
-0.32275,-0.001118989
-0.3225,-0.002816432
-0.32225,-0.006550805
-0.322,-0.009266714
-0.32175,-0.013340576
-0.3215,-0.014019553
-0.32125,-0.015038019
-0.321,-0.014019553
-0.32075,-0.01469853
-0.3205,-0.016056484
-0.32025,-0.019111881
-0.32,-0.022167278
-0.31975,-0.024204209
-0.3195,-0.025222675
-0.31925,-0.024883186
-0.319,-0.025562163
-0.31875,-0.025562163
-0.3185,-0.025901652
-0.31825,-0.024204209
-0.318,-0.025222675
-0.31775,-0.02386472
-0.3175,-0.024883186
-0.31725,-0.022167278
-0.317,-0.021827789
-0.31675,-0.018432904
-0.3165,-0.016735461
-0.31625,-0.013001088
-0.316,-0.014019553
-0.31575,-0.011303645
-0.3155,-0.010285179
-0.31525,-0.005871828
-0.315,-0.005192851
-0.31475,-0.001797966
-0.3145,-0.00315592
-0.31425,-0.0007795
-0.314,-0.00315592
-0.31375,-0.000440012
-0.3135,0.000238965
-0.31325,0.00601027
-0.313,0.008047201
-0.31275,0.014836972
-0.3125,0.016534415
-0.31225,0.021966231
-0.312,0.02230572
-0.31175,0.025361116
-0.3115,0.022984697
-0.31125,0.025021628
-0.311,0.021626743
-0.31075,0.023324185
-0.3105,0.021626743
-0.31025,0.025700605
-0.31,0.024682139
-0.30975,0.02909549
-0.3095,0.024682139
-0.30925,0.027398048
-0.309,0.023324185
-0.30875,0.025361116
-0.3085,0.020947766
-0.30825,0.023663674
-0.308,0.018571346
-0.30775,0.020608277
-0.3075,0.016194926
-0.30725,0.018910834
-0.307,0.013818506
-0.30675,0.017213392
-0.3065,0.013479018
-0.30625,0.018571346
-0.306,0.015515949
-0.30575,0.018231857
-0.3055,0.013479018
-0.30525,0.014836972
-0.305,0.009065667
-0.30475,0.01076311
-0.3045,0.005670782
-0.30425,0.008047201
-0.304,0.002954873
-0.30375,0.003973339
-0.3035,-0.002476943
-0.30325,-0.002476943
-0.303,-0.009606202
-0.30275,-0.009266714
-0.3025,-0.013340576
-0.30225,-0.011303645
-0.302,-0.016056484
-0.30175,-0.014359042
-0.3015,-0.018432904
-0.30125,-0.01707495
-0.301,-0.018432904
-0.30075,-0.016056484
-0.3005,-0.021488301
-0.30025,-0.021488301
-0.3,-0.02861756
-0.29975,-0.026580629
-0.2995,-0.031672957
-0.29925,-0.03099398
-0.299,-0.034388865
-0.29875,-0.030654491
-0.2985,-0.030654491
-0.29825,-0.02624114
-0.298,-0.027599094
-0.29775,-0.02386472
-0.2975,-0.026920117
-0.29725,-0.024543698
-0.297,-0.027599094
-0.29675,-0.025222675
-0.2965,-0.024883186
-0.29625,-0.019111881
-0.296,-0.016395973
-0.29575,-0.009945691
-0.2955,-0.006550805
-0.29525,-0.0007795
-0.295,0.001257431
-0.29475,0.004991805
-0.2945,0.005331293
-0.29425,0.008047201
-0.294,0.00838669
-0.29375,0.01076311
-0.2935,0.011102598
-0.29325,0.012121064
-0.293,0.011102598
-0.29275,0.010423621
-0.2925,0.009405156
-0.29225,0.011102598
-0.292,0.013479018
-0.29175,0.016534415
-0.2915,0.017213392
-0.29125,0.018910834
-0.291,0.020268788
-0.29075,0.022645208
-0.2905,0.025361116
-0.29025,0.027058559
-0.29,0.027058559
-0.28975,0.025361116
-0.2895,0.021626743
-0.28925,0.01755288
-0.289,0.013818506
-0.28875,0.01076311
-0.2885,0.009405156
-0.28825,0.007368224
-0.288,0.006689247
-0.28775,0.005670782
-0.2875,0.006349759
-0.28725,0.00601027
-0.287,0.007028736
-0.28675,0.00601027
-0.2865,0.009744644
-0.28625,0.011781575
-0.286,0.016194926
-0.28575,0.016534415
-0.2855,0.018910834
-0.28525,0.015855438
-0.285,0.014836972
-0.28475,0.010084133
-0.2845,0.008047201
-0.28425,0.003294362
-0.284,0.001936408
-0.28375,-0.004853363
-0.2835,-0.007569271
-0.28325,-0.013680065
-0.283,-0.014019553
-0.28275,-0.018772393
-0.2825,-0.016735461
-0.28225,-0.020130347
-0.282,-0.018772393
-0.28175,-0.021827789
-0.2815,-0.020469835
-0.28125,-0.023525232
-0.281,-0.021148812
-0.28075,-0.02386472
-0.2805,-0.022167278
-0.28025,-0.025901652
-0.28,-0.025222675
-0.27975,-0.026920117
-0.2795,-0.024204209
-0.27925,-0.025901652
-0.279,-0.024204209
-0.27875,-0.026920117
-0.2785,-0.025901652
-0.27825,-0.026580629
-0.278,-0.023185743
-0.27775,-0.023525232
-0.2775,-0.021488301
-0.27725,-0.021488301
-0.277,-0.018432904
-0.27675,-0.017753927
-0.2765,-0.015716996
-0.27625,-0.015377507
-0.276,-0.01232211
-0.27575,-0.010285179
-0.2755,-0.007229782
-0.27525,-0.008927225
-0.275,-0.007229782
-0.27475,-0.006890294
-0.2745,-0.004513874
-0.27425,-0.00315592
-0.274,-0.000100523
-0.27375,0.001257431
-0.2735,0.004312828
-0.27325,0.00601027
-0.273,0.009065667
-0.27275,0.009744644
-0.2725,0.012800041
-0.27225,0.013479018
-0.272,0.016194926
-0.27175,0.016194926
-0.2715,0.016873903
-0.27125,0.015515949
-0.271,0.014157995
-0.27075,0.013139529
-0.2705,0.012460552
-0.27025,0.012121064
-0.27,0.013479018
-0.26975,0.015515949
-0.2695,0.014836972
-0.26925,0.014836972
-0.269,0.013479018
-0.26875,0.012800041
-0.2685,0.011102598
-0.26825,0.011781575
-0.268,0.009744644
-0.26775,0.01076311
-0.2675,0.009065667
-0.26725,0.010423621
-0.267,0.008047201
-0.26675,0.008726178
-0.2665,0.007028736
-0.26625,0.010423621
-0.266,0.00838669
-0.26575,0.00838669
-0.2655,0.004312828
-0.26525,0.004312828
-0.265,-0.001118989
-0.26475,-0.001797966
-0.2645,-0.005871828
-0.26425,-0.005871828
-0.264,-0.010964156
-0.26375,-0.011303645
-0.2635,-0.016056484
-0.26325,-0.016395973
-0.263,-0.020130347
-0.26275,-0.020469835
-0.2625,-0.024204209
-0.26225,-0.02386472
-0.262,-0.027259606
-0.26175,-0.024883186
-0.2615,-0.025901652
-0.26125,-0.022167278
-0.261,-0.024883186
-0.26075,-0.022846255
-0.2605,-0.027938583
-0.26025,-0.02861756
-0.26,-0.034388865
-0.25975,-0.031672957
-0.2595,-0.032691422
-0.25925,-0.02624114
-0.259,-0.027259606
-0.25875,-0.022846255
-0.2585,-0.024543698
-0.25825,-0.019111881
-0.258,-0.020469835
-0.25775,-0.015716996
-0.2575,-0.018772393
-0.25725,-0.013001088
-0.257,-0.015038019
-0.25675,-0.009945691
-0.2565,-0.011982622
-0.25625,-0.006550805
-0.256,-0.009266714
-0.25575,-0.00315592
-0.2555,-0.00553234
-0.25525,-0.002816432
-0.255,-0.004513874
-0.25475,-0.001458477
-0.2545,-0.004853363
-0.25425,-0.000100523
-0.254,-0.001797966
-0.25375,0.001936408
-0.2535,0.001596919
-0.25325,0.008726178
-0.253,0.01076311
-0.25275,0.016534415
-0.2525,0.013139529
-0.25225,0.015855438
-0.252,0.011781575
-0.25175,0.015855438
-0.2515,0.013479018
-0.25125,0.017892369
-0.251,0.015855438
-0.25075,0.020268788
-0.2505,0.016873903
-0.25025,0.0199293
-0.25,0.015855438
-0.24975,0.018910834
-0.2495,0.014497483
-0.24925,0.01755288
-0.249,0.014497483
-0.24875,0.017892369
-0.2485,0.016873903
-0.24825,0.02230572
-0.248,0.019250323
-0.24775,0.0199293
-0.2475,0.014836972
-0.24725,0.014157995
-0.247,0.008047201
-0.24675,0.008047201
-0.2465,0.005670782
-0.24625,0.010084133
-0.246,0.01076311
-0.24575,0.014157995
-0.2455,0.012460552
-0.24525,0.014836972
-0.245,0.012800041
-0.24475,0.013139529
-0.2445,0.009405156
-0.24425,0.008726178
-0.244,0.00601027
-0.24375,0.004652316
-0.2435,0.001257431
-0.24325,-0.001458477
-0.243,-0.005192851
-0.24275,-0.008927225
-0.2425,-0.01232211
-0.24225,-0.01469853
-0.242,-0.018772393
-0.24175,-0.020130347
-0.2415,-0.020809324
-0.24125,-0.021488301
-0.241,-0.023185743
-0.24075,-0.024883186
-0.2405,-0.027599094
-0.24025,-0.029975514
-0.24,-0.032351934
-0.23975,-0.032012445
-0.2395,-0.029636026
-0.23925,-0.027599094
-0.239,-0.025222675
-0.23875,-0.024883186
-0.2385,-0.02386472
-0.23825,-0.022506766
-0.238,-0.020469835
-0.23775,-0.020130347
-0.2375,-0.018432904
-0.23725,-0.018093415
-0.237,-0.015716996
-0.23675,-0.016056484
-0.2365,-0.011982622
-0.23625,-0.011643133
-0.236,-0.008248248
-0.23575,-0.007569271
-0.2355,-0.004174386
-0.23525,-0.004174386
-0.235,-0.001458477
-0.23475,-0.002816432
-0.2345,-0.0007795
-0.23425,-0.001458477
-0.234,0.001936408
-0.23375,0.001936408
-0.2335,0.006689247
-0.23325,0.006349759
-0.233,0.010084133
-0.23275,0.00838669
-0.2325,0.012460552
-0.23225,0.011442087
-0.232,0.014497483
-0.23175,0.009405156
-0.2315,0.011781575
-0.23125,0.007028736
-0.231,0.007028736
-0.23075,0.004652316
-0.2305,0.007707713
-0.23025,0.009405156
-0.23,0.015855438
-0.22975,0.014836972
-0.2295,0.016534415
-0.22925,0.013479018
-0.229,0.017892369
-0.22875,0.016194926
-0.2285,0.017892369
-0.22825,0.016534415
-0.228,0.016534415
-0.22775,0.014497483
-0.2275,0.015515949
-0.22725,0.013818506
-0.227,0.014157995
-0.22675,0.011781575
-0.2265,0.012800041
-0.22625,0.012800041
-0.226,0.013139529
-0.22575,0.009405156
-0.2255,0.00838669
-0.22525,0.00601027
-0.225,0.006349759
-0.22475,0.004991805
-0.2245,0.005670782
-0.22425,0.004312828
-0.224,0.00363385
-0.22375,0.000578454
-0.2235,-0.000440012
-0.22325,-0.004853363
-0.223,-0.006550805
-0.22275,-0.010624668
-0.2225,-0.013001088
-0.22225,-0.01707495
-0.222,-0.020809324
-0.22175,-0.025222675
-0.2215,-0.026920117
-0.22125,-0.027259606
-0.221,-0.026580629
-0.22075,-0.025901652
-0.2205,-0.02624114
-0.22025,-0.027599094
-0.22,-0.029636026
-0.21975,-0.029296537
-0.2195,-0.029975514
-0.21925,-0.030315003
-0.219,-0.032012445
-0.21875,-0.032691422
-0.2185,-0.034049376
-0.21825,-0.031333468
-0.218,-0.031672957
-0.21775,-0.02861756
-0.2175,-0.028278071
-0.21725,-0.024543698
-0.217,-0.024204209
-0.21675,-0.020469835
-0.2165,-0.019111881
-0.21625,-0.014359042
-0.216,-0.01469853
-0.21575,-0.011303645
-0.2155,-0.010285179
-0.21525,-0.006550805
-0.215,-0.007229782
-0.21475,-0.003495409
-0.2145,-0.004853363
-0.21425,-0.001458477
-0.214,-0.00315592
-0.21375,-0.000440012
-0.2135,-0.001797966
-0.21325,0.000917942
-0.213,-0.000100523
-0.21275,0.004312828
-0.2125,0.004991805
-0.21225,0.009744644
-0.212,0.010423621
-0.21175,0.013818506
-0.2115,0.012121064
-0.21125,0.014836972
-0.211,0.012121064
-0.21075,0.014497483
-0.2105,0.011102598
-0.21025,0.01755288
-0.21,0.016873903
-0.20975,0.022645208
-0.2095,0.019250323
-0.20925,0.022645208
-0.209,0.018231857
-0.20875,0.0199293
-0.2085,0.016534415
-0.20825,0.0199293
-0.208,0.015855438
-0.20775,0.018231857
-0.2075,0.012800041
-0.20725,0.014497483
-0.207,0.007707713
-0.20675,0.00838669
-0.2065,0.003973339
-0.20625,0.008047201
-0.206,0.005670782
-0.20575,0.009744644
-0.2055,0.005670782
-0.20525,0.010084133
-0.205,0.005331293
-0.20475,0.007028736
-0.2045,0.001257431
-0.20425,0.003973339
-0.204,-0.001458477
-0.20375,0.000238965
-0.2035,-0.004853363
-0.20325,-0.004174386
-0.203,-0.009606202
-0.20275,-0.007569271
-0.2025,-0.011982622
-0.20225,-0.009606202
-0.202,-0.013680065
-0.20175,-0.010285179
-0.2015,-0.015377507
-0.20125,-0.015038019
-0.201,-0.021148812
-0.20075,-0.020130347
-0.2005,-0.024883186
-0.20025,-0.023185743
-0.2,-0.026580629
-0.19975,-0.021827789
-0.1995,-0.022167278
-0.19925,-0.016735461
-0.199,-0.017753927
-0.19875,-0.014359042
-0.1985,-0.015377507
-0.19825,-0.011303645
-0.198,-0.013001088
-0.19775,-0.009606202
-0.1975,-0.012661599
-0.19725,-0.010285179
-0.197,-0.012661599
-0.19675,-0.010285179
-0.1965,-0.011303645
-0.19625,-0.00790876
-0.196,-0.008587737
-0.19575,-0.004853363
-0.1955,-0.004174386
-0.19525,0.000578454
-0.195,0.003294362
-0.19475,0.009744644
-0.1945,0.012800041
-0.19425,0.01755288
-0.194,0.017892369
-0.19375,0.019250323
-0.1935,0.019589811
-0.19325,0.020608277
-0.193,0.020268788
-0.19275,0.020268788
-0.1925,0.020268788
-0.19225,0.020947766
-0.192,0.021287254
-0.19175,0.021287254
-0.1915,0.021626743
-0.19125,0.022984697
-0.191,0.02230572
-0.19075,0.022984697
-0.1905,0.024342651
-0.19025,0.027058559
-0.19,0.02909549
-0.18975,0.029774467
-0.1895,0.02909549
-0.18925,0.028077025
-0.189,0.027398048
-0.18875,0.028077025
-0.1885,0.028756002
-0.18825,0.027398048
-0.188,0.028416513
-0.18775,0.028077025
-0.1875,0.02909549
-0.18725,0.027058559
-0.187,0.028077025
-0.18675,0.025700605
-0.1865,0.026719071
-0.18625,0.025021628
-0.186,0.026719071
-0.18575,0.025361116
-0.1855,0.028077025
-0.18525,0.025361116
-0.185,0.025361116
-0.18475,0.021626743
-0.1845,0.020608277
-0.18425,0.016194926
-0.184,0.015855438
-0.18375,0.011781575
-0.1835,0.013479018
-0.18325,0.011102598
-0.183,0.013139529
-0.18275,0.009744644
-0.1825,0.010423621
-0.18225,0.006349759
-0.182,0.00601027
-0.18175,0.000917942
-0.1815,0.002954873
-0.18125,-0.000440012
-0.181,0.000578454
-0.18075,-0.00315592
-0.1805,-0.003495409
-0.18025,-0.009266714
-0.18,-0.009945691
-0.17975,-0.013001088
-0.1795,-0.010285179
-0.17925,-0.011303645
-0.179,-0.00790876
-0.17875,-0.009606202
-0.1785,-0.006550805
-0.17825,-0.00553234
-0.178,-0.001797966
-0.17775,-0.001797966
-0.1775,-0.001458477
-0.17725,-0.004513874
-0.177,-0.00553234
-0.17675,-0.006550805
-0.1765,-0.0007795
-0.17625,0.004312828
-0.176,0.009744644
-0.17575,0.011781575
-0.1755,0.015176461
-0.17525,0.015855438
-0.175,0.018571346
-0.17475,0.019589811
-0.1745,0.021966231
-0.17425,0.022984697
-0.174,0.024003162
-0.17375,0.023663674
-0.1735,0.024342651
-0.17325,0.022645208
-0.173,0.023324185
-0.17275,0.021966231
-0.1725,0.022984697
-0.17225,0.023324185
-0.172,0.024682139
-0.17175,0.023663674
-0.1715,0.02230572
-0.17125,0.020268788
-0.171,0.019250323
-0.17075,0.0199293
-0.1705,0.021966231
-0.17025,0.025021628
-0.17,0.026379582
-0.16975,0.027058559
-0.1695,0.026379582
-0.16925,0.027058559
-0.169,0.026719071
-0.16875,0.027398048
-0.1685,0.025700605
-0.16825,0.026379582
-0.168,0.021287254
-0.16775,0.0199293
-0.1675,0.016534415
-0.16725,0.01755288
-0.167,0.016194926
-0.16675,0.018571346
-0.1665,0.016873903
-0.16625,0.018231857
-0.166,0.018910834
-0.16575,0.020608277
-0.1655,0.018571346
-0.16525,0.020608277
-0.165,0.017213392
-0.16475,0.018231857
-0.1645,0.011442087
-0.16425,0.012800041
-0.164,0.010084133
-0.16375,0.014836972
-0.1635,0.011102598
-0.16325,0.010423621
-0.163,0.004652316
-0.16275,0.002954873
-0.1625,-0.002476943
-0.16225,-0.002137455
-0.162,-0.007229782
-0.16175,-0.004853363
-0.1615,-0.00790876
-0.16125,-0.005871828
-0.161,-0.010285179
-0.16075,-0.009266714
-0.1605,-0.014019553
-0.16025,-0.01469853
-0.16,-0.020809324
-0.15975,-0.018772393
-0.1595,-0.022167278
-0.15925,-0.018772393
-0.159,-0.022167278
-0.15875,-0.018093415
-0.1585,-0.01945137
-0.15825,-0.012661599
-0.158,-0.013680065
-0.15775,-0.007569271
-0.1575,-0.010285179
-0.15725,-0.005192851
-0.157,-0.00790876
-0.15675,-0.002476943
-0.1565,-0.003834897
-0.15625,0.001936408
-0.156,-0.000440012
-0.15575,0.003973339
-0.1555,0.001257431
-0.15525,0.005331293
-0.155,0.001936408
-0.15475,0.006349759
-0.1545,0.003294362
-0.15425,0.008047201
-0.154,0.005670782
-0.15375,0.011102598
-0.1535,0.010423621
-0.15325,0.01755288
-0.153,0.017213392
-0.15275,0.021287254
-0.1525,0.017892369
-0.15225,0.020608277
-0.152,0.016534415
-0.15175,0.019250323
-0.1515,0.015515949
-0.15125,0.018231857
-0.151,0.012800041
-0.15075,0.015176461
-0.1505,0.012800041
-0.15025,0.018910834
-0.15,0.019250323
-0.14975,0.025021628
-0.1495,0.022645208
-0.14925,0.025361116
-0.149,0.021966231
-0.14875,0.024342651
-0.1485,0.021287254
-0.14825,0.023324185
-0.148,0.019250323
-0.14775,0.020268788
-0.1475,0.016873903
-0.14725,0.019250323
-0.147,0.016873903
-0.14675,0.01755288
-0.1465,0.015176461
-0.14625,0.017892369
-0.146,0.016194926
-0.14575,0.017213392
-0.1455,0.012121064
-0.14525,0.013139529
-0.145,0.010084133
-0.14475,0.008726178
-0.1445,0.004991805
-0.14425,0.00363385
-0.144,-0.000100523
-0.14375,-0.004513874
-0.1435,-0.00790876
-0.14325,-0.009945691
-0.143,-0.010624668
-0.14275,-0.013001088
-0.1425,-0.015716996
-0.14225,-0.01945137
-0.142,-0.022846255
-0.14175,-0.02386472
-0.1415,-0.02386472
-0.14125,-0.023185743
-0.141,-0.023525232
-0.14075,-0.025222675
-0.1405,-0.027938583
-0.14025,-0.03099398
-0.14,-0.034049376
-0.13975,-0.035407331
-0.1395,-0.035407331
-0.13925,-0.035746819
-0.139,-0.034388865
-0.13875,-0.033709888
-0.1385,-0.03099398
-0.13825,-0.028957048
-0.138,-0.026580629
-0.13775,-0.02624114
-0.1375,-0.025222675
-0.13725,-0.025562163
-0.137,-0.023185743
-0.13675,-0.022846255
-0.1365,-0.01945137
-0.13625,-0.018772393
-0.136,-0.016056484
-0.13575,-0.01469853
-0.1355,-0.010285179
-0.13525,-0.009945691
-0.135,-0.006211317
-0.13475,-0.006550805
-0.1345,-0.00315592
-0.13425,-0.003834897
-0.134,-0.000100523
-0.13375,-0.001797966
-0.1335,0.001936408
-0.13325,0.001257431
-0.133,0.004991805
-0.13275,0.002954873
-0.1325,0.006349759
-0.13225,0.004652316
-0.132,0.007707713
-0.13175,0.003973339
-0.1315,0.00601027
-0.13125,0.002615385
-0.131,0.004652316
-0.13075,0.002275896
-0.1305,0.006349759
-0.13025,0.008726178
-0.13,0.014836972
-0.12975,0.015515949
-0.1295,0.018571346
-0.12925,0.017892369
-0.129,0.020608277
-0.12875,0.018910834
-0.1285,0.020608277
-0.12825,0.018571346
-0.128,0.019250323
-0.12775,0.018231857
-0.1275,0.019589811
-0.12725,0.018231857
-0.127,0.018571346
-0.12675,0.016534415
-0.1265,0.018571346
-0.12625,0.0199293
-0.126,0.021626743
-0.12575,0.0199293
-0.1255,0.017892369
-0.12525,0.013818506
-0.125,0.012800041
-0.12475,0.01076311
-0.1245,0.010084133
-0.12425,0.007368224
-0.124,0.009744644
-0.12375,0.009405156
-0.1235,0.010423621
-0.12325,0.00838669
-0.123,0.007028736
-0.12275,0.002615385
-0.1225,-0.001458477
-0.12225,-0.004853363
-0.122,-0.006890294
-0.12175,-0.006890294
-0.1215,-0.008248248
-0.12125,-0.009606202
-0.121,-0.010964156
-0.12075,-0.01232211
-0.1205,-0.015038019
-0.12025,-0.018432904
-0.12,-0.021488301
-0.11975,-0.021148812
-0.1195,-0.021488301
-0.11925,-0.020809324
-0.119,-0.021827789
-0.11875,-0.021827789
-0.1185,-0.022846255
-0.11825,-0.020469835
-0.118,-0.020809324
-0.11775,-0.017753927
-0.1175,-0.018432904
-0.11725,-0.01469853
-0.117,-0.015038019
-0.11675,-0.010285179
-0.1165,-0.009266714
-0.11625,-0.004513874
-0.116,-0.004513874
-0.11575,-0.000440012
-0.1155,-0.0007795
-0.11525,0.002954873
-0.115,0.001596919
-0.11475,0.004991805
-0.1145,0.002954873
-0.11425,0.00601027
-0.114,0.002954873
-0.11375,0.005331293
-0.1135,0.003294362
-0.11325,0.007028736
-0.113,0.006689247
-0.11275,0.011442087
-0.1125,0.011442087
-0.11225,0.015855438
-0.112,0.014157995
-0.11175,0.01755288
-0.1115,0.014497483
-0.11125,0.01755288
-0.111,0.013479018
-0.11075,0.016534415
-0.1105,0.014497483
-0.11025,0.017892369
-0.11,0.015855438
-0.10975,0.019589811
-0.1095,0.014836972
-0.10925,0.016194926
-0.109,0.011102598
-0.10875,0.012460552
-0.1085,0.007368224
-0.10825,0.009065667
-0.108,0.00363385
-0.10775,0.006349759
-0.1075,0.001936408
-0.10725,0.005670782
-0.107,0.000238965
-0.10675,0.00363385
-0.1065,0.000917942
-0.10625,0.006689247
-0.106,0.004312828
-0.10575,0.009065667
-0.1055,0.006349759
-0.10525,0.009065667
-0.105,0.00363385
-0.10475,0.004312828
-0.1045,-0.002476943
-0.10425,-0.002476943
-0.104,-0.008248248
-0.10375,-0.007569271
-0.1035,-0.012661599
-0.10325,-0.011982622
-0.103,-0.020469835
-0.10275,-0.018432904
-0.1025,-0.023185743
-0.10225,-0.021488301
-0.102,-0.025901652
-0.10175,-0.023185743
-0.1015,-0.027599094
-0.10125,-0.025901652
-0.101,-0.02861756
-0.10075,-0.02386472
-0.1005,-0.024204209
-0.10025,-0.022167278
-0.1,-0.025901652
-0.09975,-0.022167278
-0.0995,-0.023185743
-0.09925,-0.018432904
-0.099,-0.01945137
-0.09875,-0.013340576
-0.0985,-0.01232211
-0.09825,-0.006890294
-0.098,-0.007569271
-0.09775,-0.004513874
-0.0975,-0.00790876
-0.09725,-0.00790876
-0.097,-0.01232211
-0.09675,-0.011643133
-0.0965,-0.012661599
-0.09625,-0.009606202
-0.096,-0.009606202
-0.09575,-0.004513874
-0.0955,-0.002137455
-0.09525,0.003973339
-0.095,0.007707713
-0.09475,0.012460552
-0.0945,0.015176461
-0.09425,0.018231857
-0.094,0.01755288
-0.09375,0.016873903
-0.0935,0.014836972
-0.09325,0.014836972
-0.093,0.014836972
-0.09275,0.015176461
-0.0925,0.016194926
-0.09225,0.01755288
-0.092,0.017213392
-0.09175,0.016873903
-0.0915,0.016194926
-0.09125,0.017213392
-0.091,0.01755288
-0.09075,0.018231857
-0.0905,0.019250323
-0.09025,0.0199293
-0.09,0.021966231
-0.08975,0.021966231
-0.0895,0.021287254
-0.08925,0.0199293
-0.089,0.0199293
-0.08875,0.018910834
-0.0885,0.0199293
-0.08825,0.019250323
-0.088,0.018571346
-0.08775,0.01755288
-0.0875,0.01755288
-0.08725,0.016534415
-0.087,0.017213392
-0.08675,0.015515949
-0.0865,0.019589811
-0.08625,0.020947766
-0.086,0.025021628
-0.08575,0.024342651
-0.0855,0.026379582
-0.08525,0.024682139
-0.085,0.024003162
-0.08475,0.018571346
-0.0845,0.016534415
-0.08425,0.011102598
-0.084,0.010423621
-0.08375,0.006689247
-0.0835,0.008047201
-0.08325,0.00363385
-0.083,0.003294362
-0.08275,-0.0007795
-0.0825,-0.000100523
-0.08225,-0.00553234
-0.082,-0.002137455
-0.08175,-0.004174386
-0.0815,-0.002137455
-0.08125,-0.005192851
-0.081,-0.003834897
-0.08075,-0.008587737
-0.0805,-0.01232211
-0.08025,-0.01945137
-0.08,-0.020809324
-0.07975,-0.021827789
-0.0795,-0.018432904
-0.07925,-0.018772393
-0.079,-0.015038019
-0.07875,-0.015377507
-0.0785,-0.01232211
-0.07825,-0.013001088
-0.078,-0.010964156
-0.07775,-0.011303645
-0.0775,-0.009606202
-0.07725,-0.009266714
-0.077,-0.007569271
-0.07675,-0.007229782
-0.0765,-0.002816432
-0.07625,-0.000100523
-0.076,0.004312828
-0.07575,0.006689247
-0.0755,0.010423621
-0.07525,0.01076311
-0.075,0.013139529
-0.07475,0.014497483
-0.0745,0.018571346
-0.07425,0.020268788
-0.074,0.022984697
-0.07375,0.023663674
-0.0735,0.025361116
-0.07325,0.025361116
-0.073,0.027058559
-0.07275,0.027398048
-0.0725,0.029434979
-0.07225,0.03147191
-0.072,0.034527307
-0.07175,0.036564238
-0.0715,0.038601169
-0.07125,0.039280146
-0.071,0.038940658
-0.07075,0.039619635
-0.0705,0.038940658
-0.07025,0.040977589
-0.07,0.040977589
-0.06975,0.0406381
-0.0695,0.039959123
-0.06925,0.040977589
-0.069,0.040298612
-0.06875,0.042335543
-0.0685,0.041317077
-0.06825,0.042675032
-0.068,0.0406381
-0.06775,0.041656566
-0.0675,0.039619635
-0.06725,0.040977589
-0.067,0.036564238
-0.06675,0.036564238
-0.0665,0.03384833
-0.06625,0.037243215
-0.066,0.035545772
-0.06575,0.036564238
-0.0655,0.031811399
-0.06525,0.032490376
-0.065,0.027398048
-0.06475,0.026040094
-0.0645,0.020608277
-0.06425,0.020608277
-0.064,0.014497483
-0.06375,0.014836972
-0.0635,0.01076311
-0.06325,0.011781575
-0.063,0.007707713
-0.06275,0.00838669
-0.0625,0.004652316
-0.06225,0.006689247
-0.062,0.00363385
-0.06175,0.007028736
-0.0615,0.005331293
-0.06125,0.01076311
-0.061,0.008047201
-0.06075,0.011102598
-0.0605,0.009065667
-0.06025,0.012121064
-0.06,0.010084133
-0.05975,0.016873903
-0.0595,0.017213392
-0.05925,0.023663674
-0.059,0.019589811
-0.05875,0.027058559
-0.0585,0.026719071
-0.05825,0.034527307
-0.058,0.034527307
-0.05775,0.041317077
-0.0575,0.039959123
-0.05725,0.043693497
-0.057,0.043354009
-0.05675,0.053538664
-0.0565,0.058970481
-0.05625,0.068815648
-0.056,0.071192068
-0.05575,0.082055701
-0.0555,0.087148029
-0.05525,0.098690639
-0.055,0.10310399
-0.05475,0.1146466
-0.0545,0.119399439
-0.05425,0.130942049
-0.054,0.1353554
-0.05375,0.146558522
-0.0535,0.152669315
-0.05325,0.16319346
-0.053,0.167606811
-0.05275,0.175754536
-0.0525,0.177451978
-0.05225,0.185599703
-0.052,0.187976123
-0.05175,0.196802824
-0.0515,0.19782129
-0.05125,0.204271572
-0.051,0.202574129
-0.05075,0.206647992
-0.0505,0.204611061
-0.05025,0.209703389
-0.05,0.207326969
-0.04975,0.211061343
-0.0495,0.205629526
-0.04925,0.20698748
-0.049,0.20019771
-0.04875,0.197142313
-0.0485,0.187297146
-0.04825,0.18390226
-0.048,0.17473607
-0.04775,0.171341185
-0.0475,0.161156529
-0.04725,0.155045735
-0.047,0.145879545
-0.04675,0.142145171
-0.0465,0.136034377
-0.04625,0.133997446
-0.046,0.128226141
-0.04575,0.124152279
-0.0455,0.115665066
-0.04525,0.110572738
-0.045,0.102764501
-0.04475,0.096993196
-0.0445,0.089863937
-0.04425,0.086129563
-0.044,0.081716213
-0.04375,0.076623885
-0.0435,0.07085258
-0.04325,0.066439229
-0.043,0.060667924
-0.04275,0.053878153
-0.0425,0.048446337
-0.04225,0.041656566
-0.042,0.034527307
-0.04175,0.029434979
-0.0415,0.024342651
-0.04125,0.020947766
-0.041,0.017892369
-0.04075,0.014497483
-0.0405,0.012800041
-0.04025,0.009744644
-0.04,0.008047201
-0.03975,0.007707713
-0.0395,0.007368224
-0.03925,0.006349759
-0.039,0.007368224
-0.03875,0.008726178
-0.0385,0.011781575
-0.03825,0.015515949
-0.038,0.020268788
-0.03775,0.023324185
-0.0375,0.026379582
-0.03725,0.025700605
-0.037,0.027398048
-0.03675,0.025700605
-0.0365,0.027737536
-0.03625,0.025700605
-0.036,0.027058559
-0.03575,0.026040094
-0.0355,0.027737536
-0.03525,0.025700605
-0.035,0.026719071
-0.03475,0.024342651
-0.0345,0.025361116
-0.03425,0.021966231
-0.034,0.024342651
-0.03375,0.022645208
-0.0335,0.025700605
-0.03325,0.024003162
-0.033,0.027737536
-0.03275,0.025021628
-0.0325,0.025021628
-0.03225,0.020268788
-0.032,0.021626743
-0.03175,0.019250323
-0.0315,0.021287254
-0.03125,0.017892369
-0.031,0.019250323
-0.03075,0.01755288
-0.0305,0.020268788
-0.03025,0.018910834
-0.03,0.022984697
-0.02975,0.021287254
-0.0295,0.021626743
-0.02925,0.018231857
-0.029,0.018910834
-0.02875,0.015855438
-0.0285,0.017213392
-0.02825,0.015176461
-0.028,0.015515949
-0.02775,0.013479018
-0.0275,0.014497483
-0.02725,0.013818506
-0.027,0.013818506
-0.02675,0.011442087
-0.0265,0.012121064
-0.02625,0.011102598
-0.026,0.011781575
-0.02575,0.010423621
-0.0255,0.009744644
-0.02525,0.006689247
-0.025,0.004312828
-0.02475,0.000578454
-0.0245,-0.001797966
-0.02425,-0.004853363
-0.024,-0.007229782
-0.02375,-0.009945691
-0.0235,-0.011982622
-0.02325,-0.01469853
-0.023,-0.016056484
-0.02275,-0.01707495
-0.0225,-0.017414438
-0.02225,-0.01945137
-0.022,-0.022167278
-0.02175,-0.025562163
-0.0215,-0.028957048
-0.02125,-0.029975514
-0.021,-0.031672957
-0.02075,-0.032012445
-0.0205,-0.034049376
-0.02025,-0.035407331
-0.02,-0.037104773
-0.01975,-0.034728353
-0.0195,-0.032691422
-0.01925,-0.029636026
-0.019,-0.029636026
-0.01875,-0.028278071
-0.0185,-0.029296537
-0.01825,-0.027259606
-0.018,-0.027599094
-0.01775,-0.025222675
-0.0175,-0.026580629
-0.01725,-0.023525232
-0.017,-0.024543698
-0.01675,-0.021488301
-0.0165,-0.021488301
-0.01625,-0.018772393
-0.016,-0.021148812
-0.01575,-0.018093415
-0.0155,-0.019111881
-0.01525,-0.016056484
-0.015,-0.016395973
-0.01475,-0.011643133
-0.0145,-0.01232211
-0.01425,-0.008248248
-0.014,-0.010285179
-0.01375,-0.007569271
-0.0135,-0.009266714
-0.01325,-0.00553234
-0.013,-0.00553234
-0.01275,-0.000440012
-0.0125,-0.001118989
-0.01225,0.003973339
-0.012,0.002275896
-0.01175,0.00601027
-0.0115,0.001936408
-0.01125,0.004652316
-0.011,0.001257431
-0.01075,0.00363385
-0.0105,-0.0007795
-0.01025,0.005331293
-0.01,0.00363385
-0.00975,0.007707713
-0.0095,0.002615385
-0.00925,0.005331293
-0.009,0.001257431
-0.00875,0.001596919
-0.0085,-0.002816432
-0.00825,0.000238965
-0.008,-0.001797966
-0.00775,0.002275896
-0.0075,-0.0007795
-0.00725,0.003973339
-0.007,0.001257431
-0.00675,0.005331293
-0.0065,0.003294362
-0.00625,0.009065667
-0.006,0.005670782
-0.00575,0.008726178
-0.0055,0.003973339
-0.00525,0.006689247
-0.005,0.001257431
-0.00475,0.001936408
-0.0045,-0.004853363
-0.00425,-0.00553234
-0.004,-0.014359042
-0.00375,-0.015377507
-0.0035,-0.022167278
-0.00325,-0.022506766
-0.003,-0.028278071
-0.00275,-0.027259606
-0.0025,-0.030315003
-0.00225,-0.028278071
-0.002,-0.032351934
-0.00175,-0.029975514
-0.0015,-0.033709888
-0.00125,-0.031333468
-0.001,-0.036086308
-0.00075,-0.034728353
-0.0005,-0.039820681
-0.00025,-0.041178636
0,-0.046949941
0.00025,-0.043555055
0.0005,-0.045252498
0.00075,-0.041857613
0.001,-0.044913009
0.00125,-0.043894544
0.0015,-0.048307895
0.00175,-0.045931475
0.002,-0.047289429
0.00225,-0.042197101
0.0025,-0.040839147
0.00275,-0.033709888
0.003,-0.032351934
0.00325,-0.026920117
0.0035,-0.025562163
0.00375,-0.020809324
0.004,-0.018432904
0.00425,-0.013340576
0.0045,-0.010964156
0.00475,-0.006211317
0.005,-0.003834897
0.00525,-0.000100523
0.0055,0.000238965
0.00575,0.002275896
0.006,0.003294362
0.00625,0.003973339
0.0065,0.004991805
0.00675,0.00601027
0.007,0.006349759
0.00725,0.00601027
0.0075,0.005670782
0.00775,0.005331293
0.008,0.005331293
0.00825,0.003973339
0.0085,0.001936408
0.00875,0.000578454
0.009,-0.000100523
0.00925,0.000578454
0.0095,0.001936408
0.00975,0.004312828
0.01,0.00601027
0.01025,0.005670782
0.0105,0.004991805
0.01075,0.002275896
0.011,0.001596919
0.01125,-0.001118989
0.0115,-0.001118989
0.01175,-0.002137455
0.012,-0.0007795
0.01225,-0.002137455
0.0125,-0.0007795
0.01275,-0.002137455
0.013,-0.000440012
0.01325,-0.003495409
0.0135,-0.001797966
0.01375,-0.002137455
0.014,0.000917942
0.01425,-0.001458477
0.0145,0.000578454
0.01475,-0.0007795
0.015,0.001596919
0.01525,-0.0007795
0.0155,0.000238965
0.01575,-0.003834897
0.016,-0.004853363
0.01625,-0.006550805
0.0165,-0.00553234
0.01675,-0.009606202
0.017,-0.009266714
0.01725,-0.01469853
0.0175,-0.015716996
0.01775,-0.025222675
0.018,-0.027259606
0.01825,-0.031333468
0.0185,-0.02861756
0.01875,-0.032351934
0.019,-0.031672957
0.01925,-0.034728353
0.0195,-0.033709888
0.01975,-0.036425796
0.02,-0.033030911
0.02025,-0.032351934
0.0205,-0.027938583
0.02075,-0.028957048
0.021,-0.027599094
0.02125,-0.031672957
0.0215,-0.031672957
0.02175,-0.033709888
0.022,-0.031672957
0.02225,-0.031333468
0.0225,-0.027259606
0.02275,-0.02386472
0.023,-0.01945137
0.02325,-0.017414438
0.0235,-0.013001088
0.02375,-0.010285179
0.024,-0.007229782
0.02425,-0.006550805
0.0245,-0.004174386
0.02475,-0.004174386
0.025,-0.001797966
0.02525,-0.000100523
0.0255,0.002615385
0.02575,0.004652316
0.026,0.005670782
0.02625,0.005331293
0.0265,0.007368224
0.02675,0.00838669
0.027,0.010084133
0.02725,0.01076311
0.0275,0.01076311
0.02775,0.01076311
0.028,0.010084133
0.02825,0.00838669
0.0285,0.005670782
0.02875,0.003973339
0.029,0.002275896
0.02925,0.002275896
0.0295,0.002615385
0.02975,0.005670782
0.03,0.008047201
0.03025,0.01076311
0.0305,0.010084133
0.03075,0.010084133
0.031,0.007707713
0.03125,0.007028736
0.0315,0.004991805
0.03175,0.00601027
0.032,0.003294362
0.03225,0.003973339
0.0325,0.002275896
0.03275,0.005670782
0.033,0.006349759
0.03325,0.010423621
0.0335,0.01076311
0.03375,0.015176461
0.034,0.012460552
0.03425,0.013139529
0.0345,0.009065667
0.03475,0.009065667
0.035,0.003973339
0.03525,0.004652316
0.0355,0.000238965
0.03575,0.001596919
0.036,-0.00315592
0.03625,-0.002137455
0.0365,-0.007569271
0.03675,-0.009266714
0.037,-0.016735461
0.03725,-0.01945137
0.0375,-0.025222675
0.03775,-0.025562163
0.038,-0.031672957
0.03825,-0.027938583
0.0385,-0.029296537
0.03875,-0.025562163
0.039,-0.02861756
0.03925,-0.02624114
0.0395,-0.030654491
0.03975,-0.031333468
0.04,-0.037104773
0.04025,-0.033030911
0.0405,-0.034049376
0.04075,-0.028278071
0.041,-0.031672957
0.04125,-0.027938583
0.0415,-0.03099398
0.04175,-0.02624114
0.042,-0.02861756
0.04225,-0.023525232
0.0425,-0.025901652
0.04275,-0.020469835
0.043,-0.022846255
0.04325,-0.016395973
0.0435,-0.016395973
0.04375,-0.008927225
0.044,-0.009945691
0.04425,-0.003834897
0.0445,-0.004174386
0.04475,0.001257431
0.045,0.000578454
0.04525,0.00601027
0.0455,0.003294362
0.04575,0.007368224
0.046,0.00363385
0.04625,0.006349759
0.0465,0.004991805
0.04675,0.009065667
0.047,0.006349759
0.04725,0.010423621
0.0475,0.00838669
0.04775,0.013139529
0.048,0.010084133
0.04825,0.013479018
0.0485,0.009405156
0.04875,0.012121064
0.049,0.007707713
0.04925,0.010084133
0.0495,0.006689247
0.04975,0.011781575
0.05,0.01076311
0.05025,0.015176461
0.0505,0.013818506
0.05075,0.016873903
0.051,0.015176461
0.05125,0.018231857
0.0515,0.016194926
0.05175,0.019250323
0.052,0.016534415
0.05225,0.01755288
0.0525,0.014497483
0.05275,0.014836972
0.053,0.011442087
0.05325,0.011781575
0.0535,0.011781575
0.05375,0.014157995
0.054,0.013139529
0.05425,0.013139529
0.0545,0.01076311
0.05475,0.010084133
0.055,0.006689247
0.05525,0.00601027
0.0555,0.003973339
0.05575,0.004652316
0.056,0.003294362
0.05625,0.001936408
0.0565,-0.0007795
0.05675,-0.003834897
0.057,-0.006890294
0.05725,-0.010964156
0.0575,-0.01232211
0.05775,-0.01469853
0.058,-0.016056484
0.05825,-0.018093415
0.0585,-0.020130347
0.05875,-0.022167278
0.059,-0.023185743
0.05925,-0.024543698
0.0595,-0.026920117
0.05975,-0.030315003
0.06,-0.03099398
0.06025,-0.031333468
0.0605,-0.029636026
0.06075,-0.030315003
0.061,-0.030654491
0.06125,-0.033030911
0.0615,-0.032691422
0.06175,-0.033370399
0.062,-0.030315003
0.06225,-0.027599094
0.0625,-0.022506766
0.06275,-0.01945137
0.063,-0.013680065
0.06325,-0.01232211
0.0635,-0.006890294
0.06375,-0.007229782
0.064,-0.001118989
0.06425,-0.0007795
0.0645,0.002615385
0.06475,0.000578454
0.065,0.001936408
0.06525,-0.001797966
0.0655,-0.002137455
0.06575,-0.003495409
0.066,-0.000100523
0.06625,0.001936408
0.0665,0.007028736
0.06675,0.007368224
0.067,0.012460552
0.06725,0.01076311
0.0675,0.013818506
0.06775,0.011102598
0.068,0.012800041
0.06825,0.010423621
0.0685,0.013479018
0.06875,0.012460552
0.069,0.015515949
0.06925,0.013818506
0.0695,0.016873903
0.06975,0.014836972
0.07,0.01755288
0.07025,0.014836972
0.0705,0.013818506
0.07075,0.009744644
0.071,0.010084133
0.07125,0.007028736
0.0715,0.00838669
0.07175,0.00838669
0.072,0.01076311
0.07225,0.011102598
0.0725,0.013139529
0.07275,0.013139529
0.073,0.013139529
0.07325,0.012460552
0.0735,0.014497483
0.07375,0.016194926
0.074,0.017213392
0.07425,0.015855438
0.0745,0.015515949
0.07475,0.013818506
0.075,0.012800041
0.07525,0.01076311
0.0755,0.009405156
0.07575,0.008047201
0.076,0.007028736
0.07625,0.004991805
0.0765,0.002615385
0.07675,-0.001118989
0.077,-0.003834897
0.07725,-0.008248248
0.0775,-0.01232211
0.07775,-0.017753927
0.078,-0.022506766
0.07825,-0.025562163
0.0785,-0.027599094
0.07875,-0.027259606
0.079,-0.027259606
0.07925,-0.02624114
0.0795,-0.025562163
0.07975,-0.024543698
0.08,-0.02386472
0.08025,-0.020130347
0.0805,-0.017753927
0.08075,-0.014019553
0.081,-0.014019553
0.08125,-0.012661599
0.0815,-0.01469853
0.08175,-0.013340576
0.082,-0.015716996
0.08225,-0.014359042
0.0825,-0.017414438
0.08275,-0.015377507
0.083,-0.01707495
0.08325,-0.013340576
0.0835,-0.011982622
0.08375,-0.005871828
0.084,-0.004853363
0.08425,0.000578454
0.0845,-0.0007795
0.08475,0.001596919
0.085,-0.0007795
0.08525,0.001596919
0.0855,0.002615385
0.08575,0.00838669
0.086,0.008726178
0.08625,0.013479018
0.0865,0.011781575
0.08675,0.013479018
0.087,0.009405156
0.08725,0.012800041
0.0875,0.011442087
0.08775,0.017213392
0.088,0.015855438
0.08825,0.020608277
0.0885,0.018571346
0.08875,0.02230572
0.089,0.018231857
0.08925,0.020608277
0.0895,0.015515949
0.08975,0.016873903
0.09,0.011102598
0.09025,0.012121064
0.0905,0.007368224
0.09075,0.011442087
0.091,0.010084133
0.09125,0.016194926
0.0915,0.014836972
0.09175,0.019589811
0.092,0.015855438
0.09225,0.018910834
0.0925,0.015176461
0.09275,0.019589811
0.093,0.016194926
0.09325,0.019250323
0.0935,0.016873903
0.09375,0.021287254
0.094,0.017213392
0.09425,0.0199293
0.0945,0.014836972
0.09475,0.017213392
0.095,0.011442087
0.09525,0.012121064
0.0955,0.006349759
0.09575,0.007368224
0.096,0.002275896
0.09625,0.00363385
0.0965,-0.001118989
0.09675,-0.000440012
0.097,-0.005871828
0.09725,-0.00553234
0.0975,-0.011643133
0.09775,-0.011643133
0.098,-0.017753927
0.09825,-0.017414438
0.0985,-0.02386472
0.09875,-0.022846255
0.099,-0.027938583
0.09925,-0.025901652
0.0995,-0.029636026
0.09975,-0.027599094
0.1,-0.029636026
0.10025,-0.024883186
0.1005,-0.026580629
0.10075,-0.02386472
0.101,-0.026580629
0.10125,-0.024883186
0.1015,-0.026580629
0.10175,-0.021488301
0.102,-0.021488301
0.10225,-0.017414438
0.1025,-0.018093415
0.10275,-0.015038019
0.103,-0.015038019
0.10325,-0.010624668
0.1035,-0.008248248
0.10375,-0.003495409
0.104,-0.002137455
0.10425,0.001257431
0.1045,0.001936408
0.10475,0.004652316
0.105,0.005331293
0.10525,0.007028736
0.1055,0.00838669
0.10575,0.010084133
0.106,0.011102598
0.10625,0.011781575
0.1065,0.012800041
0.10675,0.012460552
0.107,0.012460552
0.10725,0.012460552
0.1075,0.013139529
0.10775,0.013479018
0.108,0.014836972
0.10825,0.015176461
0.1085,0.014497483
0.10875,0.014497483
0.109,0.015855438
0.10925,0.015855438
0.1095,0.016534415
0.10975,0.017892369
0.11,0.019250323
0.11025,0.017213392
0.1105,0.013818506
0.11075,0.010084133
0.111,0.01076311
0.11125,0.011781575
0.1115,0.013139529
0.11175,0.010084133
0.112,0.008047201
0.11225,0.003294362
0.1125,0.003294362
0.11275,0.001257431
0.113,0.004312828
0.11325,0.004652316
0.1135,0.011102598
0.11375,0.013139529
0.114,0.016534415
0.11425,0.014497483
0.1145,0.016534415
0.11475,0.014157995
0.115,0.015515949
0.11525,0.012121064
0.1155,0.012121064
0.11575,0.007368224
0.116,0.00601027
0.11625,0.000917942
0.1165,0.001596919
0.11675,-0.00553234
0.117,-0.007569271
0.11725,-0.013001088
0.1175,-0.014019553
0.11775,-0.020469835
0.118,-0.019790858
0.11825,-0.022846255
0.1185,-0.021488301
0.11875,-0.025562163
0.119,-0.026580629
0.11925,-0.032351934
0.1195,-0.035407331
0.11975,-0.04253659
0.12,-0.043215567
0.12025,-0.045591986
0.1205,-0.041857613
0.12075,-0.041857613
0.121,-0.038802216
0.12125,-0.038802216
0.1215,-0.034388865
0.12175,-0.032351934
0.122,-0.02624114
0.12225,-0.022506766
0.1225,-0.018093415
0.12275,-0.017414438
0.123,-0.017414438
0.12325,-0.018093415
0.1235,-0.016056484
0.12375,-0.014359042
0.124,-0.011982622
0.12425,-0.010285179
0.1245,-0.007229782
0.12475,-0.00553234
0.125,-0.002137455
0.12525,-0.000440012
0.1255,0.001257431
0.12575,0.002615385
0.126,0.004312828
0.12625,0.004991805
0.1265,0.006689247
0.12675,0.007028736
0.127,0.007707713
0.12725,0.007368224
0.1275,0.007707713
0.12775,0.008047201
0.128,0.008047201
0.12825,0.008726178
0.1285,0.008726178
0.12875,0.009744644
0.129,0.009065667
0.12925,0.009405156
0.1295,0.009065667
0.12975,0.012121064
0.13,0.014836972
0.13025,0.018571346
0.1305,0.0199293
0.13075,0.022984697
0.131,0.022984697
0.13125,0.025021628
0.1315,0.022645208
0.13175,0.024003162
0.132,0.018910834
0.13225,0.018571346
0.1325,0.014157995
0.13275,0.013479018
0.133,0.009744644
0.13325,0.012121064
0.1335,0.010084133
0.13375,0.013139529
0.134,0.010423621
0.13425,0.011781575
0.1345,0.00838669
0.13475,0.007028736
0.135,0.001257431
0.13525,0.000578454
0.1355,-0.00315592
0.13575,-0.001797966
0.136,-0.006890294
0.13625,-0.00553234
0.1365,-0.010624668
0.13675,-0.010285179
0.137,-0.014359042
0.13725,-0.013680065
0.1375,-0.018093415
0.13775,-0.016735461
0.138,-0.021488301
0.13825,-0.019111881
0.1385,-0.023525232
0.13875,-0.020469835
0.139,-0.025562163
0.13925,-0.023525232
0.1395,-0.029296537
0.13975,-0.029296537
0.14,-0.034049376
0.14025,-0.030315003
0.1405,-0.033709888
0.14075,-0.030315003
0.141,-0.034388865
0.14125,-0.030654491
0.1415,-0.034049376
0.14175,-0.02861756
0.142,-0.032012445
0.14225,-0.028278071
0.1425,-0.032691422
0.14275,-0.027938583
0.143,-0.03099398
0.14325,-0.025901652
0.1435,-0.026920117
0.14375,-0.020469835
0.144,-0.021148812
0.14425,-0.014359042
0.1445,-0.016056484
0.14475,-0.010964156
0.145,-0.013680065
0.14525,-0.009606202
0.1455,-0.012661599
0.14575,-0.008587737
0.146,-0.010624668
0.14625,-0.006890294
0.1465,-0.009606202
0.14675,-0.00553234
0.147,-0.007229782
0.14725,-0.004513874
0.1475,-0.007569271
0.14775,-0.003495409
0.148,-0.006550805
0.14825,-0.002476943
0.1485,-0.005192851
0.14875,-0.000440012
0.149,-0.001458477
0.14925,0.005331293
0.1495,0.005670782
0.14975,0.012460552
0.15,0.012800041
0.15025,0.015855438
0.1505,0.013139529
0.15075,0.018571346
0.151,0.018910834
0.15125,0.024003162
0.1515,0.023324185
0.15175,0.025361116
0.152,0.02230572
0.15225,0.02230572
0.1525,0.018231857
0.15275,0.01755288
0.153,0.013818506
0.15325,0.013139529
0.1535,0.012460552
0.15375,0.013818506
0.154,0.012121064
0.15425,0.009744644
0.1545,0.004991805
0.15475,0.001596919
0.155,-0.003495409
0.15525,-0.006890294
0.1555,-0.010624668
0.15575,-0.01232211
0.156,-0.013340576
0.15625,-0.01469853
0.1565,-0.014359042
0.15675,-0.015038019
0.157,-0.015716996
0.15725,-0.017414438
0.1575,-0.021148812
0.15775,-0.02386472
0.158,-0.028957048
0.15825,-0.032691422
0.1585,-0.034049376
0.15875,-0.033030911
0.159,-0.03099398
0.15925,-0.030654491
0.1595,-0.031333468
0.15975,-0.032691422
0.16,-0.030654491
0.16025,-0.029296537
0.1605,-0.029296537
0.16075,-0.030315003
0.161,-0.029296537
0.16125,-0.030654491
0.1615,-0.02861756
0.16175,-0.027938583
0.162,-0.025562163
0.16225,-0.025901652
0.1625,-0.023525232
0.16275,-0.022846255
0.163,-0.018093415
0.16325,-0.01707495
0.1635,-0.011303645
0.16375,-0.010285179
0.164,-0.005871828
0.16425,-0.005871828
0.1645,-0.001458477
0.16475,-0.002816432
0.165,0.000578454
0.16525,-0.000440012
0.1655,0.002615385
0.16575,0.001257431
0.166,0.004991805
0.16625,0.004312828
0.1665,0.007707713
0.16675,0.005331293
0.167,0.007368224
0.16725,0.004312828
0.1675,0.007368224
0.16775,0.00601027
0.168,0.009065667
0.16825,0.006349759
0.1685,0.008047201
0.16875,0.005331293
0.169,0.007368224
0.16925,0.005331293
0.1695,0.009405156
0.16975,0.009744644
0.17,0.012800041
0.17025,0.010084133
0.1705,0.01076311
0.17075,0.006689247
0.171,0.006689247
0.17125,0.004312828
0.1715,0.004991805
0.17175,0.002954873
0.172,0.002954873
0.17225,-0.000440012
0.1725,-0.000100523
0.17275,-0.001458477
0.173,0.000238965
0.17325,0.001257431
0.1735,0.005670782
0.17375,0.008047201
0.174,0.010423621
0.17425,0.011442087
0.1745,0.013139529
0.17475,0.014836972
0.175,0.017213392
0.17525,0.017892369
0.1755,0.019250323
0.17575,0.019250323
0.176,0.017892369
0.17625,0.015515949
0.1765,0.012800041
0.17675,0.009405156
0.177,0.006349759
0.17725,0.00363385
0.1775,0.001596919
0.17775,-0.001458477
0.178,-0.004174386
0.17825,-0.006211317
0.1785,-0.008248248
0.17875,-0.009266714
0.179,-0.01232211
0.17925,-0.013001088
0.1795,-0.015716996
0.17975,-0.016735461
0.18,-0.019790858
0.18025,-0.015716996
0.1805,-0.016395973
0.18075,-0.015038019
0.181,-0.016395973
0.18125,-0.016395973
0.1815,-0.01945137
0.18175,-0.01945137
0.182,-0.023525232
0.18225,-0.020809324
0.1825,-0.021827789
0.18275,-0.016735461
0.183,-0.017753927
0.18325,-0.01232211
0.1835,-0.009606202
0.18375,-0.002816432
0.184,-0.0007795
0.18425,0.005331293
0.1845,0.005331293
0.18475,0.009744644
0.185,0.009065667
0.18525,0.012800041
0.1855,0.011102598
0.18575,0.015855438
0.186,0.014157995
0.18625,0.017892369
0.1865,0.016534415
0.18675,0.020947766
0.187,0.019250323
0.18725,0.022984697
0.1875,0.020268788
0.18775,0.023663674
0.188,0.020608277
0.18825,0.022984697
0.1885,0.019589811
0.18875,0.022984697
0.189,0.019589811
0.18925,0.024003162
0.1895,0.021966231
0.18975,0.026719071
0.19,0.024342651
0.19025,0.027398048
0.1905,0.023324185
0.19075,0.027737536
0.191,0.022984697
0.19125,0.025021628
0.1915,0.021626743
0.19175,0.026040094
0.192,0.022645208
0.19225,0.026719071
0.1925,0.023324185
0.19275,0.027737536
0.193,0.025021628
0.19325,0.02909549
0.1935,0.027398048
0.19375,0.031132421
0.194,0.026379582
0.19425,0.027398048
0.1945,0.021626743
0.19475,0.023324185
0.195,0.017892369
0.19525,0.019589811
0.1955,0.014157995
0.19575,0.015176461
0.196,0.009405156
0.19625,0.010084133
0.1965,0.005331293
0.19675,0.005670782
0.197,0.000578454
0.19725,0.001257431
0.1975,-0.00315592
0.19775,-0.002476943
0.198,-0.007229782
0.19825,-0.004853363
0.1985,-0.008248248
0.19875,-0.005871828
0.199,-0.009945691
0.19925,-0.008248248
0.1995,-0.013340576
0.19975,-0.012661599
0.2,-0.017414438
0.20025,-0.015038019
0.2005,-0.019111881
0.20075,-0.018432904
0.201,-0.021148812
0.20125,-0.018093415
0.2015,-0.018772393
0.20175,-0.01469853
0.202,-0.015038019
0.20225,-0.012661599
0.2025,-0.014019553
0.20275,-0.011303645
0.203,-0.010624668
0.20325,-0.00553234
0.2035,-0.001797966
0.20375,0.002615385
0.204,0.004312828
0.20425,0.007707713
0.2045,0.00601027
0.20475,0.009065667
0.205,0.009405156
0.20525,0.011781575
0.2055,0.013818506
0.20575,0.015855438
0.206,0.01755288
0.20625,0.017892369
0.2065,0.016873903
0.20675,0.016873903
0.207,0.018231857
0.20725,0.021626743
0.2075,0.025021628
0.20775,0.027737536
0.208,0.030792933
0.20825,0.032490376
0.2085,0.034187818
0.20875,0.034527307
0.209,0.035545772
0.20925,0.035885261
0.2095,0.037243215
0.20975,0.038940658
0.21,0.0406381
0.21025,0.038601169
0.2105,0.036564238
0.21075,0.032490376
0.211,0.031132421
0.21125,0.02909549
0.2115,0.030453444
0.21175,0.030453444
0.212,0.031811399
0.21225,0.031811399
0.2125,0.033508841
0.21275,0.03147191
0.213,0.032490376
0.21325,0.031132421
0.2135,0.034866795
0.21375,0.033508841
0.214,0.034866795
0.21425,0.032150887
0.2145,0.03384833
0.21475,0.030792933
0.215,0.030792933
0.21525,0.026040094
0.2155,0.025361116
0.21575,0.019589811
0.216,0.019250323
0.21625,0.014157995
0.2165,0.014157995
0.21675,0.008047201
0.217,0.007368224
0.21725,0.001596919
0.2175,0.002615385
0.21775,-0.001797966
0.218,0.000917942
0.21825,-0.000440012
0.2185,0.00363385
0.21875,0.00363385
0.219,0.007707713
0.21925,0.005331293
0.2195,0.005670782
0.21975,-0.000100523
0.22,0.001936408
0.22025,-0.000100523
0.2205,0.001596919
0.22075,-0.001458477
0.221,-0.001797966
0.22125,-0.005192851
0.2215,-0.004513874
0.22175,-0.004513874
0.222,-0.001797966
0.22225,-0.001118989
0.2225,0.001936408
0.22275,0.002275896
0.223,0.004652316
0.22325,0.00601027
0.2235,0.010084133
0.22375,0.011442087
0.224,0.013479018
0.22425,0.014497483
0.2245,0.016534415
0.22475,0.016873903
0.225,0.018231857
0.22525,0.018231857
0.2255,0.019589811
0.22575,0.021287254
0.226,0.021966231
0.22625,0.022984697
0.2265,0.026379582
0.22675,0.02909549
0.227,0.031811399
0.22725,0.03384833
0.2275,0.034866795
0.22775,0.035885261
0.228,0.035885261
0.22825,0.036224749
0.2285,0.035885261
0.22875,0.036224749
0.229,0.033508841
0.22925,0.036903726
0.2295,0.036564238
0.22975,0.038940658
0.23,0.039959123
0.23025,0.040977589
0.2305,0.038601169
0.23075,0.040298612
0.231,0.034866795
0.23125,0.035885261
0.2315,0.033169353
0.23175,0.036903726
0.232,0.033508841
0.23225,0.035206284
0.2325,0.032490376
0.23275,0.034187818
0.233,0.030113956
0.23325,0.03147191
0.2335,0.029434979
0.23375,0.03147191
0.234,0.029434979
0.23425,0.031811399
0.2345,0.029434979
0.23475,0.031132421
0.235,0.026719071
0.23525,0.027398048
0.2355,0.022645208
0.23575,0.022645208
0.236,0.016194926
0.23625,0.015855438
0.2365,0.009405156
0.23675,0.01076311
0.237,0.00601027
0.23725,0.006689247
0.2375,0.001936408
0.23775,0.001596919
0.238,-0.004174386
0.23825,-0.002137455
0.2385,-0.006211317
0.23875,-0.004853363
0.239,-0.010285179
0.23925,-0.009266714
0.2395,-0.01707495
0.23975,-0.01707495
0.24,-0.021488301
0.24025,-0.015716996
0.2405,-0.01707495
0.24075,-0.011982622
0.241,-0.013680065
0.24125,-0.006890294
0.2415,-0.005871828
0.24175,0.002615385
0.242,0.002275896
0.24225,0.007368224
0.2425,0.004312828
0.24275,0.009065667
0.243,0.007028736
0.24325,0.013139529
0.2435,0.013818506
0.24375,0.020947766
0.244,0.021966231
0.24425,0.030113956
0.2445,0.029434979
0.24475,0.032490376
0.245,0.027398048
0.24525,0.028416513
0.2455,0.023324185
0.24575,0.024682139
0.246,0.020608277
0.24625,0.022984697
0.2465,0.021287254
0.24675,0.025700605
0.247,0.026040094
0.24725,0.031132421
0.2475,0.030792933
0.24775,0.035545772
0.248,0.033508841
0.24825,0.036224749
0.2485,0.032150887
0.24875,0.034527307
0.249,0.031811399
0.24925,0.035885261
0.2495,0.035206284
0.24975,0.040298612
0.25,0.037922192
0.25025,0.038601169
0.2505,0.033169353
0.25075,0.03384833
0.251,0.031132421
0.25125,0.034527307
0.2515,0.034866795
0.25175,0.038261681
0.252,0.035885261
0.25225,0.035885261
0.2525,0.033169353
0.25275,0.034527307
0.253,0.030792933
0.25325,0.033508841
0.2535,0.034187818
0.25375,0.036224749
0.254,0.035885261
0.25425,0.035545772
0.2545,0.03384833
0.25475,0.032150887
0.255,0.027737536
0.25525,0.026040094
0.2555,0.024003162
0.25575,0.023663674
0.256,0.021966231
0.25625,0.019250323
0.2565,0.01755288
0.25675,0.014836972
0.257,0.013139529
0.25725,0.010084133
0.2575,0.009405156
0.25775,0.006349759
0.258,0.004312828
0.25825,0.001936408
0.2585,0.000238965
0.25875,-0.001458477
0.259,-0.002476943
0.25925,-0.004174386
0.2595,-0.005871828
0.25975,-0.008248248
0.26,-0.007569271
0.26025,-0.007229782
0.2605,-0.005871828
0.26075,-0.007229782
0.261,-0.007569271
0.26125,-0.009266714
0.2615,-0.007229782
0.26175,-0.007229782
0.262,-0.004853363
0.26225,-0.006211317
0.2625,-0.003495409
0.26275,-0.003495409
0.263,0.000917942
0.26325,0.001596919
0.2635,0.008047201
0.26375,0.008726178
0.264,0.012460552
0.26425,0.012121064
0.2645,0.015855438
0.26475,0.014157995
0.265,0.017213392
0.26525,0.016873903
0.2655,0.021966231
0.26575,0.021287254
0.266,0.023663674
0.26625,0.020608277
0.2665,0.023663674
0.26675,0.021966231
0.267,0.026040094
0.26725,0.024003162
0.2675,0.027737536
0.26775,0.026719071
0.268,0.029434979
0.26825,0.027058559
0.2685,0.029434979
0.26875,0.028416513
0.269,0.03147191
0.26925,0.030113956
0.2695,0.034187818
0.26975,0.03384833
0.27,0.037922192
0.27025,0.036564238
0.2705,0.037582704
0.27075,0.036564238
0.271,0.037922192
0.27125,0.035885261
0.2715,0.036564238
0.27175,0.034187818
0.272,0.03384833
0.27225,0.031132421
0.2725,0.031132421
0.27275,0.028416513
0.273,0.027398048
0.27325,0.026719071
0.2735,0.029434979
0.27375,0.030113956
0.274,0.029774467
0.27425,0.028077025
0.2745,0.026040094
0.27475,0.024682139
0.275,0.02230572
0.27525,0.01755288
0.2755,0.012800041
0.27575,0.00838669
0.276,0.005670782
0.27625,0.003973339
0.2765,0.000917942
0.27675,0.004312828
0.277,0.005670782
0.27725,0.004991805
0.2775,0.003294362
0.27775,0.000917942
0.278,-0.001458477
0.27825,-0.001797966
0.2785,-0.001458477
0.27875,0.002275896
0.279,0.00363385
0.27925,0.004652316
0.2795,0.001257431
0.27975,-0.000100523
0.28,-0.001458477
0.28025,0.001257431
0.2805,-0.000100523
0.28075,0.000578454
0.281,-0.001797966
0.28125,-0.001118989
0.2815,-0.002476943
0.28175,0.001257431
0.282,0.000238965
0.28225,0.002954873
0.2825,-0.000440012
0.28275,0.000578454
0.283,-0.002476943
0.28325,0.001257431
0.2835,0.002275896
0.28375,0.008047201
0.284,0.00838669
0.28425,0.013479018
0.2845,0.012800041
0.28475,0.01755288
0.285,0.017892369
0.28525,0.023324185
0.2855,0.02230572
0.28575,0.026719071
0.286,0.023663674
0.28625,0.027737536
0.2865,0.026379582
0.28675,0.032150887
0.287,0.032150887
0.28725,0.036903726
0.2875,0.035206284
0.28775,0.039959123
0.288,0.036903726
0.28825,0.039619635
0.2885,0.035885261
0.28875,0.039280146
0.289,0.035206284
0.28925,0.038261681
0.2895,0.035545772
0.28975,0.040298612
0.29,0.036903726
0.29025,0.039959123
0.2905,0.035206284
0.29075,0.037922192
0.291,0.034187818
0.29125,0.037582704
0.2915,0.03384833
0.29175,0.037243215
0.292,0.032490376
0.29225,0.034866795
0.2925,0.031132421
0.29275,0.034187818
0.293,0.030453444
0.29325,0.034866795
0.2935,0.032490376
0.29375,0.036903726
0.294,0.033169353
0.29425,0.034866795
0.2945,0.030453444
0.29475,0.03147191
0.295,0.026040094
0.29525,0.027058559
0.2955,0.021966231
0.29575,0.022984697
0.296,0.017892369
0.29625,0.017892369
0.2965,0.012460552
0.29675,0.012800041
0.297,0.008047201
0.29725,0.009065667
0.2975,0.004312828
0.29775,0.004652316
0.298,-0.000100523
0.29825,-0.000100523
0.2985,-0.002137455
0.29875,0.000238965
0.299,-0.002816432
0.29925,-0.001118989
0.2995,-0.005871828
0.29975,-0.006890294
0.3,-0.01232211
0.30025,-0.008587737
0.3005,-0.009945691
0.30075,-0.005192851
0.301,-0.008248248
0.30125,-0.005871828
0.3015,-0.007569271
0.30175,-0.003495409
0.302,-0.003834897
0.30225,-0.001458477
0.3025,-0.002476943
0.30275,-0.000100523
0.303,0.000578454
0.30325,0.002954873
0.3035,0.005331293
0.30375,0.008047201
0.304,0.009065667
0.30425,0.011442087
0.3045,0.012800041
0.30475,0.014836972
0.305,0.016534415
0.30525,0.018910834
0.3055,0.020608277
0.30575,0.021966231
0.306,0.023663674
0.30625,0.022645208
0.3065,0.022984697
0.30675,0.02230572
0.307,0.022645208
0.30725,0.02230572
0.3075,0.023324185
0.30775,0.024682139
0.308,0.025700605
0.30825,0.025700605
0.3085,0.026379582
0.30875,0.026040094
0.309,0.026719071
0.30925,0.025700605
0.3095,0.027737536
0.30975,0.028077025
0.31,0.029434979
0.31025,0.027737536
0.3105,0.027737536
0.31075,0.026040094
0.311,0.027058559
0.31125,0.025021628
0.3115,0.025021628
0.31175,0.021966231
0.312,0.020608277
0.31225,0.014836972
0.3125,0.013479018
0.31275,0.010084133
0.313,0.011781575
0.31325,0.011442087
0.3135,0.017213392
0.31375,0.020268788
0.314,0.026719071
0.31425,0.02909549
0.3145,0.033508841
0.31475,0.031811399
0.315,0.032829864
0.31525,0.028756002
0.3155,0.028416513
0.31575,0.023324185
0.316,0.022645208
0.31625,0.016194926
0.3165,0.014497483
0.31675,0.007028736
0.317,0.007368224
0.31725,0.003973339
0.3175,0.007368224
0.31775,0.004991805
0.318,0.007707713
0.31825,0.00601027
0.3185,0.008726178
0.31875,0.006689247
0.319,0.007028736
0.31925,0.001257431
0.3195,0.001596919
0.31975,-0.003834897
0.32,-0.003834897
0.32025,-0.005871828
0.3205,-0.005871828
0.32075,-0.008927225
0.321,-0.011303645
0.32125,-0.011303645
0.3215,-0.005871828
0.32175,-0.000100523
0.322,0.004312828
0.32225,0.004991805
0.3225,0.006689247
0.32275,0.005670782
0.323,0.007028736
0.32325,0.007368224
0.3235,0.01076311
0.32375,0.013139529
0.324,0.015855438
0.32425,0.016873903
0.3245,0.018231857
0.32475,0.018231857
0.325,0.018910834
0.32525,0.018571346
0.3255,0.01755288
0.32575,0.017892369
0.326,0.018910834
0.32625,0.020608277
0.3265,0.022645208
0.32675,0.024682139
0.327,0.025700605
0.32725,0.026719071
0.3275,0.026719071
0.32775,0.027737536
0.328,0.028756002
0.32825,0.030113956
0.3285,0.030453444
0.32875,0.032829864
0.329,0.031811399
0.32925,0.032490376
0.3295,0.032150887
0.32975,0.034527307
0.33,0.03384833
0.33025,0.033169353
0.3305,0.030453444
0.33075,0.031132421
0.331,0.030113956
0.33125,0.030792933
0.3315,0.028756002
0.33175,0.030453444
0.332,0.027398048
0.33225,0.028756002
0.3325,0.025700605
0.33275,0.027398048
0.333,0.024003162
0.33325,0.026379582
0.3335,0.024682139
0.33375,0.027058559
0.334,0.024342651
0.33425,0.027398048
0.3345,0.025021628
0.33475,0.027737536
0.335,0.023324185
0.33525,0.022984697
0.3355,0.017213392
